OxySoft export of:	E:\???????????\changsha\????\fNIRES????\CUTIN\38--4-1
Export date:	2022/12/13 16:35:10
Start of measurement:	2022-11-24 17:29:24.831

Datafile sample rate:	50.00	Hz
Datafile duration:	34.120	s
Datafile total number of samples:	1706

Description:	

Optode-template:	OctaMon+ 2x4 channel
Optode distance (mm):	 30.00	30.00
Optode gradients (mm):	 -	-
DPF:	5.85	5.85

Device id:	16168
# Receivers:	2
# Light sources:	16
# ADC:	1

Light source wavelengths:
device	index	wavelength
1	1	844	nm
1	2	757	nm
1	3	844	nm
1	4	757	nm
1	5	844	nm
1	6	757	nm
1	7	844	nm
1	8	757	nm
1	9	844	nm
1	10	757	nm
1	11	844	nm
1	12	757	nm
1	13	844	nm
1	14	757	nm
1	15	844	nm
1	16	757	nm

Export sample rate:	50.00	Hz
Selected time span:	0	34.120
Selected time span (sample numbers):	0	1706


Legend:
Column	Trace (Measurement)
1	(Sample number)
2	Rx1-Tx1 O2Hb (38--4-1)
3	Rx1-Tx1 HHb (38--4-1)
4	Rx1-Tx2 O2Hb (38--4-1)
5	Rx1-Tx2 HHb (38--4-1)
6	Rx1-Tx3 O2Hb (38--4-1)
7	Rx1-Tx3 HHb (38--4-1)
8	Rx1-Tx4 O2Hb (38--4-1)
9	Rx1-Tx4 HHb (38--4-1)
10	Rx2-Tx5 O2Hb (38--4-1)
11	Rx2-Tx5 HHb (38--4-1)
12	Rx2-Tx6 O2Hb (38--4-1)
13	Rx2-Tx6 HHb (38--4-1)
14	Rx2-Tx7 O2Hb (38--4-1)
15	Rx2-Tx7 HHb (38--4-1)
16	Rx2-Tx8 O2Hb (38--4-1)
17	Rx2-Tx8 HHb (38--4-1)
18	(Event)


1	2	3	4	5	6	7	8	9	10	11	12	13	14	15	16	17	18
     0	125.2915	86.7510	125.9694	84.8089	133.0365	89.2332	124.2470	83.5616	124.7170	82.5016	118.2675	81.9369	131.8385	87.5026	127.5317	86.4873	
     1	125.2915	86.7510	125.9694	84.8089	133.0365	89.2332	124.2470	83.5616	124.7170	82.5016	118.2675	81.9369	131.8385	87.5026	127.5317	86.4873	
     2	 0.3018	 0.0381	 0.2416	 0.0339	 0.4708	 0.1401	 0.7990	 0.3222	-0.4228	-0.1911	-0.1068	-0.0644	 0.2804	 0.1052	 0.3306	 0.0875	
     3	 0.3018	 0.0381	 0.2416	 0.0339	 0.4708	 0.1401	 0.7990	 0.3222	-0.4228	-0.1911	-0.1068	-0.0644	 0.2804	 0.1052	 0.3306	 0.0875	
     4	 0.2929	 0.0327	 0.2327	 0.0285	 0.4530	 0.1294	 0.7901	 0.3168	-0.4228	-0.1911	-0.1068	-0.0644	 0.2882	 0.0939	 0.3384	 0.0762	
     5	 0.2840	 0.0273	 0.2405	 0.0172	 0.4362	 0.1353	 0.7812	 0.3115	-0.4228	-0.1911	-0.1068	-0.0644	 0.2882	 0.0939	 0.3384	 0.0762	
     6	 0.2840	 0.0273	 0.2405	 0.0172	 0.4441	 0.1240	 0.7812	 0.3115	-0.4228	-0.1911	-0.0990	-0.0757	 0.2882	 0.0939	 0.3217	 0.0821	
     7	 0.2672	 0.0333	 0.2405	 0.0172	 0.4441	 0.1240	 0.7812	 0.3115	-0.4484	-0.1906	-0.1157	-0.0698	 0.2804	 0.1052	 0.3306	 0.0875	
     8	 0.2583	 0.0279	 0.2238	 0.0231	 0.4352	 0.1187	 0.7812	 0.3115	-0.4573	-0.1960	-0.1157	-0.0698	 0.2804	 0.1052	 0.3306	 0.0875	
     9	 0.2583	 0.0279	 0.2405	 0.0172	 0.4352	 0.1187	 0.7901	 0.3168	-0.4751	-0.2067	-0.1157	-0.0698	 0.2804	 0.1052	 0.3395	 0.0928	
    10	 0.2494	 0.0225	 0.2316	 0.0119	 0.4096	 0.1192	 0.7979	 0.3056	-0.4929	-0.2175	-0.1491	-0.0580	 0.2804	 0.1052	 0.3395	 0.0928	
    11	 0.2406	 0.0171	 0.2316	 0.0119	 0.3928	 0.1251	 0.7901	 0.3168	-0.5185	-0.2169	-0.1335	-0.0805	 0.2882	 0.0939	 0.3395	 0.0928	
    12	 0.2149	 0.0177	 0.2149	 0.0178	 0.3918	 0.1085	 0.7645	 0.3174	-0.5363	-0.2277	-0.1502	-0.0746	 0.2715	 0.0999	 0.3395	 0.0928	
    13	 0.2060	 0.0123	 0.2060	 0.0124	 0.3661	 0.1090	 0.7723	 0.3061	-0.5541	-0.2384	-0.1591	-0.0800	 0.2715	 0.0999	 0.3395	 0.0928	
    14	 0.1804	 0.0129	 0.1804	 0.0129	 0.3405	 0.1095	 0.7545	 0.2954	-0.5886	-0.2432	-0.1847	-0.0794	 0.2626	 0.0945	 0.3227	 0.0988	
    15	 0.1459	 0.0080	 0.1626	 0.0022	 0.3227	 0.0988	 0.7122	 0.3018	-0.6153	-0.2593	-0.2104	-0.0789	 0.2459	 0.1004	 0.2971	 0.0993	
    16	 0.1281	-0.0027	 0.1369	 0.0027	 0.2804	 0.1052	 0.6944	 0.2911	-0.6498	-0.2642	-0.2282	-0.0896	 0.2370	 0.0950	 0.2715	 0.0998	
    17	 0.0936	-0.0075	 0.1024	-0.0021	 0.2459	 0.1004	 0.6510	 0.2809	-0.6676	-0.2749	-0.2538	-0.0891	 0.2114	 0.0956	 0.2537	 0.0891	
    18	 0.0591	-0.0124	 0.0846	-0.0128	 0.2281	 0.0897	 0.6165	 0.2760	-0.6933	-0.2744	-0.2716	-0.0998	 0.1936	 0.0848	 0.2359	 0.0784	
    19	 0.0246	-0.0172	 0.0501	-0.0177	 0.1936	 0.0848	 0.5819	 0.2712	-0.7189	-0.2738	-0.3061	-0.1047	 0.1847	 0.0794	 0.2103	 0.0789	
    20	-0.0189	-0.0274	 0.0156	-0.0225	 0.1591	 0.0800	 0.5474	 0.2664	-0.7445	-0.2733	-0.3239	-0.1154	 0.1590	 0.0800	 0.1758	 0.0741	
    21	-0.0534	-0.0322	-0.0189	-0.0273	 0.1245	 0.0752	 0.4962	 0.2674	-0.7790	-0.2781	-0.3584	-0.1202	 0.1334	 0.0805	 0.1502	 0.0746	
    22	-0.0879	-0.0371	-0.0367	-0.0381	 0.0900	 0.0703	 0.4784	 0.2567	-0.7890	-0.3001	-0.3840	-0.1197	 0.1245	 0.0752	 0.1245	 0.0751	
    23	-0.1224	-0.0419	-0.0790	-0.0316	 0.0555	 0.0655	 0.4439	 0.2519	-0.8491	-0.3044	-0.4185	-0.1245	 0.0989	 0.0757	 0.1067	 0.0644	
    24	-0.1569	-0.0467	-0.1057	-0.0477	 0.0210	 0.0607	 0.4094	 0.2470	-0.8925	-0.3146	-0.4530	-0.1294	 0.0733	 0.0762	 0.0722	 0.0596	
    25	-0.1825	-0.0462	-0.1146	-0.0531	 0.0121	 0.0553	 0.3837	 0.2476	-0.9281	-0.3361	-0.4965	-0.1396	 0.0555	 0.0655	 0.0299	 0.0660	
    26	-0.1569	-0.0467	-0.1314	-0.0472	 0.0377	 0.0548	 0.4183	 0.2524	-0.9626	-0.3409	-0.5054	-0.1449	 0.0388	 0.0714	 0.0299	 0.0660	
    27	-0.0968	-0.0424	-0.1136	-0.0365	 0.0900	 0.0703	 0.4873	 0.2621	-0.9804	-0.3517	-0.5142	-0.1503	 0.0388	 0.0714	 0.0555	 0.0655	
    28	-0.0277	-0.0328	-0.0623	-0.0375	 0.1847	 0.0795	 0.5830	 0.2878	-0.9726	-0.3630	-0.5054	-0.1449	 0.0644	 0.0709	 0.0989	 0.0757	
    29	 0.0413	-0.0231	-0.0022	-0.0332	 0.2626	 0.0945	 0.6866	 0.3023	-0.9637	-0.3576	-0.4708	-0.1401	 0.0989	 0.0757	 0.1680	 0.0853	
    30	 0.1103	-0.0135	 0.0579	-0.0290	 0.3316	 0.1042	 0.7734	 0.3227	-0.9381	-0.3581	-0.4196	-0.1412	 0.1502	 0.0746	 0.2537	 0.0891	
    31	 0.1537	-0.0033	 0.1014	-0.0188	 0.3918	 0.1085	 0.8513	 0.3378	-0.9125	-0.3587	-0.3851	-0.1363	 0.1847	 0.0794	 0.3227	 0.0988	
    32	 0.2050	-0.0043	 0.1359	-0.0139	 0.4185	 0.1246	 0.9203	 0.3474	-0.8958	-0.3646	-0.3506	-0.1315	 0.2192	 0.0843	 0.3750	 0.1143	
    33	 0.2395	 0.0005	 0.1871	-0.0150	 0.4530	 0.1294	 0.9805	 0.3517	-0.8701	-0.3651	-0.3161	-0.1267	 0.2537	 0.0891	 0.4352	 0.1186	
    34	 0.2651	-0.0000	 0.2127	-0.0155	 0.4953	 0.1230	 1.0239	 0.3619	-0.8534	-0.3710	-0.2904	-0.1272	 0.2882	 0.0939	 0.4953	 0.1229	
    35	 0.2829	 0.0107	 0.2472	-0.0107	 0.5209	 0.1224	 1.0584	 0.3668	-0.8612	-0.3597	-0.2648	-0.1278	 0.3305	 0.0875	 0.5220	 0.1390	
    36	 0.2996	 0.0048	 0.2650	 0.0000	 0.5298	 0.1278	 1.0929	 0.3716	-0.8278	-0.3715	-0.2392	-0.1283	 0.3483	 0.0982	 0.5565	 0.1439	
    37	 0.2996	 0.0048	 0.2817	-0.0059	 0.5298	 0.1278	 1.1096	 0.3657	-0.8267	-0.3549	-0.2136	-0.1288	 0.3818	 0.0864	 0.5821	 0.1433	
    38	 0.2996	 0.0048	 0.2985	-0.0118	 0.5209	 0.1224	 1.1007	 0.3603	-0.8011	-0.3554	-0.2047	-0.1235	 0.3740	 0.0977	 0.5910	 0.1487	
    39	 0.2907	-0.0006	 0.2985	-0.0118	 0.5042	 0.1283	 1.1086	 0.3490	-0.7922	-0.3501	-0.1880	-0.1294	 0.3907	 0.0918	 0.5910	 0.1487	
    40	 0.2740	 0.0053	 0.2985	-0.0118	 0.5042	 0.1283	 1.1086	 0.3490	-0.7833	-0.3447	-0.1880	-0.1294	 0.3996	 0.0972	 0.5910	 0.1487	
    41	 0.2740	 0.0053	 0.2985	-0.0118	 0.5042	 0.1283	 1.1086	 0.3490	-0.7744	-0.3393	-0.1791	-0.1240	 0.3996	 0.0972	 0.6078	 0.1428	
    42	 0.2740	 0.0053	 0.2906	-0.0005	 0.5042	 0.1283	 1.1086	 0.3490	-0.7744	-0.3393	-0.1702	-0.1186	 0.3918	 0.1084	 0.5999	 0.1541	
    43	 0.2740	 0.0053	 0.3074	-0.0064	 0.5042	 0.1283	 1.1175	 0.3544	-0.7744	-0.3393	-0.1702	-0.1186	 0.4085	 0.1025	 0.6167	 0.1481	
    44	 0.2740	 0.0053	 0.3163	-0.0010	 0.5042	 0.1283	 1.1175	 0.3544	-0.7833	-0.3447	-0.1780	-0.1074	 0.4085	 0.1025	 0.6255	 0.1535	
    45	 0.2740	 0.0053	 0.3163	-0.0010	 0.4953	 0.1230	 1.1264	 0.3598	-0.8011	-0.3554	-0.1780	-0.1074	 0.4007	 0.1138	 0.6344	 0.1589	
    46	 0.2740	 0.0053	 0.3163	-0.0010	 0.4953	 0.1230	 1.1264	 0.3598	-0.8189	-0.3662	-0.1702	-0.1186	 0.4174	 0.1079	 0.6344	 0.1589	
    47	 0.2651	-0.0000	 0.3163	-0.0010	 0.4864	 0.1176	 1.1175	 0.3544	-0.8534	-0.3710	-0.1958	-0.1181	 0.4007	 0.1138	 0.6344	 0.1589	
    48	 0.2484	 0.0059	 0.2995	 0.0049	 0.4608	 0.1181	 1.0918	 0.3549	-0.8623	-0.3764	-0.1958	-0.1181	 0.4085	 0.1025	 0.6177	 0.1648	
    49	 0.2395	 0.0005	 0.3074	-0.0064	 0.4352	 0.1187	 1.0740	 0.3442	-0.8712	-0.3818	-0.2047	-0.1235	 0.4085	 0.1025	 0.6177	 0.1648	
    50	 0.2217	-0.0102	 0.2906	-0.0005	 0.4174	 0.1079	 1.0395	 0.3394	-0.8790	-0.3705	-0.2136	-0.1288	 0.3996	 0.0972	 0.5921	 0.1653	
    51	 0.1872	-0.0151	 0.2561	-0.0053	 0.3829	 0.1031	 1.0128	 0.3233	-0.8701	-0.3651	-0.2392	-0.1283	 0.3740	 0.0977	 0.5665	 0.1659	
    52	 0.1615	-0.0145	 0.2305	-0.0048	 0.3651	 0.0924	 0.9616	 0.3243	-0.8534	-0.3710	-0.2392	-0.1283	 0.3651	 0.0923	 0.5654	 0.1492	
    53	 0.1270	-0.0194	 0.2127	-0.0155	 0.3227	 0.0988	 0.9182	 0.3141	-0.8701	-0.3651	-0.2481	-0.1337	 0.3394	 0.0929	 0.5231	 0.1557	
    54	 0.1092	-0.0301	 0.1871	-0.0150	 0.3049	 0.0881	 0.8759	 0.3206	-0.8958	-0.3646	-0.2904	-0.1272	 0.3138	 0.0934	 0.5053	 0.1449	
    55	 0.0836	-0.0296	 0.1693	-0.0257	 0.2704	 0.0832	 0.8492	 0.3045	-0.9136	-0.3753	-0.2993	-0.1326	 0.3049	 0.0880	 0.4797	 0.1455	
    56	 0.0491	-0.0344	 0.1437	-0.0252	 0.2526	 0.0725	 0.8146	 0.2996	-0.9313	-0.3860	-0.3250	-0.1321	 0.2793	 0.0886	 0.4452	 0.1406	
    57	 0.0313	-0.0451	 0.1259	-0.0359	 0.2181	 0.0677	 0.7801	 0.2948	-0.9659	-0.3909	-0.3428	-0.1428	 0.2537	 0.0891	 0.4274	 0.1299	
    58	 0.0057	-0.0446	 0.1003	-0.0354	 0.1836	 0.0628	 0.7367	 0.2846	-0.9837	-0.4016	-0.3684	-0.1423	 0.2359	 0.0784	 0.3850	 0.1363	
    59	-0.0288	-0.0494	 0.0747	-0.0349	 0.1491	 0.0580	 0.7022	 0.2798	-1.0093	-0.4011	-0.3940	-0.1417	 0.2103	 0.0789	 0.3672	 0.1256	
    60	-0.0466	-0.0602	 0.0569	-0.0456	 0.1146	 0.0532	 0.6666	 0.2583	-1.0093	-0.4011	-0.4196	-0.1412	 0.1925	 0.0682	 0.3249	 0.1320	
    61	-0.0811	-0.0650	 0.0312	-0.0451	 0.0800	 0.0483	 0.6232	 0.2481	-1.0171	-0.3898	-0.4207	-0.1578	 0.1669	 0.0687	 0.3149	 0.1100	
    62	-0.1068	-0.0645	 0.0056	-0.0445	 0.0544	 0.0489	 0.5887	 0.2433	-1.0171	-0.3898	-0.4463	-0.1573	 0.1324	 0.0639	 0.2726	 0.1165	
    63	-0.1146	-0.0532	-0.0033	-0.0499	 0.0711	 0.0430	 0.5887	 0.2433	-1.0171	-0.3898	-0.4552	-0.1627	 0.1067	 0.0644	 0.2381	 0.1116	
    64	-0.0633	-0.0543	-0.0111	-0.0386	 0.0978	 0.0591	 0.6232	 0.2481	-1.0171	-0.3898	-0.4552	-0.1627	 0.1146	 0.0531	 0.2381	 0.1116	
    65	 0.0057	-0.0446	 0.0490	-0.0343	 0.1669	 0.0687	 0.6933	 0.2744	-1.0171	-0.3898	-0.4463	-0.1573	 0.1146	 0.0531	 0.2804	 0.1052	
    66	 0.0836	-0.0296	 0.0925	-0.0241	 0.2448	 0.0838	 0.8047	 0.2776	-0.9915	-0.3903	-0.4196	-0.1412	 0.1491	 0.0580	 0.3160	 0.1267	
    67	 0.1615	-0.0145	 0.1693	-0.0257	 0.3394	 0.0929	 0.8748	 0.3039	-0.9570	-0.3855	-0.3684	-0.1423	 0.1836	 0.0628	 0.3850	 0.1363	
    68	 0.2217	-0.0102	 0.2049	-0.0043	 0.3996	 0.0972	 0.9694	 0.3131	-0.9057	-0.3866	-0.3250	-0.1321	 0.2348	 0.0617	 0.4708	 0.1401	
    69	 0.2740	 0.0053	 0.2650	 0.0000	 0.4430	 0.1074	 1.0306	 0.3340	-0.8623	-0.3764	-0.2559	-0.1224	 0.2693	 0.0666	 0.5231	 0.1557	
    70	 0.3085	 0.0102	 0.2995	 0.0049	 0.4942	 0.1063	 1.0908	 0.3383	-0.8278	-0.3715	-0.2047	-0.1235	 0.2871	 0.0773	 0.5832	 0.1600	
    71	 0.3508	 0.0037	 0.3508	 0.0038	 0.5120	 0.1171	 1.1420	 0.3372	-0.7933	-0.3667	-0.1702	-0.1186	 0.3295	 0.0709	 0.6344	 0.1589	
    72	 0.3686	 0.0145	 0.3764	 0.0033	 0.5465	 0.1219	 1.1687	 0.3533	-0.7588	-0.3619	-0.1357	-0.1138	 0.3384	 0.0762	 0.6690	 0.1637	
    73	 0.4110	 0.0080	 0.4109	 0.0081	 0.5722	 0.1213	 1.1943	 0.3528	-0.7243	-0.3571	-0.1179	-0.1031	 0.3729	 0.0811	 0.7035	 0.1686	
    74	 0.4199	 0.0134	 0.4454	 0.0129	 0.5889	 0.1154	 1.2199	 0.3523	-0.6897	-0.3522	-0.0834	-0.0982	 0.3896	 0.0751	 0.7213	 0.1793	
    75	 0.4277	 0.0021	 0.4376	 0.0242	 0.5722	 0.1213	 1.1943	 0.3528	-0.6719	-0.3415	-0.0577	-0.0988	 0.3985	 0.0805	 0.7302	 0.1847	
    76	 0.4110	 0.0080	 0.4543	 0.0183	 0.5633	 0.1160	 1.1932	 0.3362	-0.6541	-0.3307	-0.0321	-0.0993	 0.4152	 0.0746	 0.7380	 0.1734	
    77	 0.4110	 0.0080	 0.4632	 0.0237	 0.5544	 0.1106	 1.1676	 0.3367	-0.6196	-0.3259	-0.0232	-0.0939	 0.4152	 0.0746	 0.7380	 0.1734	
    78	 0.4110	 0.0080	 0.4632	 0.0237	 0.5376	 0.1165	 1.1498	 0.3260	-0.5929	-0.3098	-0.0054	-0.0832	 0.3985	 0.0805	 0.7124	 0.1739	
    79	 0.4031	 0.0193	 0.4721	 0.0290	 0.5455	 0.1052	 1.1498	 0.3260	-0.5662	-0.2937	 0.0035	-0.0778	 0.3985	 0.0805	 0.7202	 0.1626	
    80	 0.4199	 0.0134	 0.4888	 0.0231	 0.5455	 0.1052	 1.1242	 0.3265	-0.5317	-0.2889	 0.0291	-0.0784	 0.3985	 0.0805	 0.7035	 0.1686	
    81	 0.4199	 0.0134	 0.4888	 0.0231	 0.5287	 0.1111	 1.1153	 0.3211	-0.5218	-0.2669	 0.0547	-0.0789	 0.3985	 0.0805	 0.7202	 0.1626	
    82	 0.4199	 0.0134	 0.4888	 0.0231	 0.5287	 0.1111	 1.1064	 0.3158	-0.4961	-0.2674	 0.0558	-0.0623	 0.3985	 0.0805	 0.7035	 0.1686	
    83	 0.4288	 0.0188	 0.4977	 0.0285	 0.5198	 0.1058	 1.0975	 0.3104	-0.4872	-0.2620	 0.0814	-0.0628	 0.3818	 0.0864	 0.7113	 0.1573	
    84	 0.4120	 0.0247	 0.4810	 0.0344	 0.5109	 0.1004	 1.0797	 0.2996	-0.4616	-0.2626	 0.0736	-0.0515	 0.3896	 0.0751	 0.6946	 0.1632	
    85	 0.4120	 0.0247	 0.4899	 0.0398	 0.5020	 0.0950	 1.0541	 0.3002	-0.4438	-0.2518	 0.0903	-0.0574	 0.3729	 0.0811	 0.6857	 0.1578	
    86	 0.4120	 0.0247	 0.4732	 0.0457	 0.4764	 0.0956	 1.0274	 0.2841	-0.4260	-0.2411	 0.0992	-0.0521	 0.3640	 0.0757	 0.6601	 0.1584	
    87	 0.4031	 0.0193	 0.4732	 0.0457	 0.4508	 0.0961	 0.9840	 0.2739	-0.4082	-0.2303	 0.1159	-0.0580	 0.3551	 0.0703	 0.6423	 0.1476	
    88	 0.3864	 0.0252	 0.4565	 0.0516	 0.4330	 0.0854	 0.9228	 0.2529	-0.3815	-0.2142	 0.1081	-0.0467	 0.3295	 0.0709	 0.5999	 0.1541	
    89	 0.3775	 0.0198	 0.4476	 0.0462	 0.3985	 0.0805	 0.8537	 0.2433	-0.3459	-0.1928	 0.1003	-0.0354	 0.3117	 0.0601	 0.5732	 0.1379	
    90	 0.3441	 0.0316	 0.4387	 0.0408	 0.3640	 0.0757	 0.8004	 0.2111	-0.3104	-0.1713	 0.1092	-0.0300	 0.2939	 0.0494	 0.5298	 0.1277	
    91	 0.3352	 0.0263	 0.4220	 0.0467	 0.3462	 0.0650	 0.7224	 0.1960	-0.2580	-0.1557	 0.1014	-0.0188	 0.2683	 0.0499	 0.4864	 0.1175	
    92	 0.3096	 0.0268	 0.3874	 0.0419	 0.3028	 0.0548	 0.6523	 0.1697	-0.1968	-0.1348	 0.1181	-0.0247	 0.2337	 0.0451	 0.4508	 0.0961	
    93	 0.2840	 0.0273	 0.3618	 0.0425	 0.2772	 0.0553	 0.5577	 0.1606	-0.1523	-0.1079	 0.1270	-0.0193	 0.2159	 0.0343	 0.3907	 0.0918	
    94	 0.2583	 0.0279	 0.3273	 0.0376	 0.2505	 0.0392	 0.4876	 0.1343	-0.0911	-0.0870	 0.1192	-0.0080	 0.1814	 0.0295	 0.3473	 0.0816	
    95	 0.2238	 0.0231	 0.2928	 0.0328	 0.2081	 0.0456	 0.4096	 0.1192	-0.0634	-0.0542	 0.1192	-0.0080	 0.1558	 0.0300	 0.3117	 0.0601	
    96	 0.1982	 0.0236	 0.2416	 0.0339	 0.1903	 0.0349	 0.3406	 0.1096	-0.0199	-0.0440	 0.1113	 0.0033	 0.1380	 0.0193	 0.2604	 0.0612	
    97	 0.1637	 0.0188	 0.2071	 0.0290	 0.1558	 0.0301	 0.2961	 0.0827	-0.0021	-0.0333	 0.1024	-0.0021	 0.1124	 0.0198	 0.2170	 0.0510	
    98	 0.1381	 0.0193	 0.1725	 0.0242	 0.1380	 0.0193	 0.2438	 0.0672	 0.0157	-0.0225	 0.0857	 0.0038	 0.0868	 0.0204	 0.1903	 0.0349	
    99	 0.1036	 0.0145	 0.1380	 0.0194	 0.0957	 0.0258	 0.1915	 0.0516	 0.0078	-0.0113	 0.0690	 0.0097	 0.0690	 0.0096	 0.1391	 0.0359	
   100	 0.0691	 0.0096	 0.0946	 0.0092	 0.0612	 0.0210	 0.1303	 0.0307	 0.0078	-0.0113	 0.0434	 0.0102	 0.0434	 0.0102	 0.0957	 0.0257	
   101	 0.0345	 0.0048	 0.0434	 0.0102	 0.0267	 0.0161	 0.0613	 0.0210	 0.0000	 0.0000	 0.0178	 0.0108	 0.0178	 0.0107	 0.0523	 0.0155	
   102	 0.0000	-0.0000	-0.0000	 0.0000	-0.0000	 0.0000	 0.0000	 0.0000	 0.0000	 0.0000	-0.0000	 0.0000	-0.0000	-0.0000	-0.0000	-0.0000	
   103	-0.0434	-0.0102	-0.0435	-0.0102	-0.0346	-0.0048	-0.0690	-0.0096	-0.0334	 0.0118	-0.0513	 0.0011	-0.0257	 0.0005	-0.0602	-0.0043	
   104	-0.0690	-0.0097	-0.0780	-0.0150	-0.0602	-0.0043	-0.0868	-0.0204	-0.0256	 0.0005	-0.0769	 0.0016	-0.0513	 0.0011	-0.0869	-0.0204	
   105	-0.0690	-0.0097	-0.1036	-0.0145	-0.0346	-0.0048	-0.0946	-0.0091	-0.0512	 0.0011	-0.1025	 0.0022	-0.0769	 0.0016	-0.1214	-0.0253	
   106	-0.0256	 0.0005	-0.0869	-0.0204	 0.0178	 0.0107	-0.0256	 0.0006	-0.0512	 0.0011	-0.1114	-0.0032	-0.0691	-0.0097	-0.1214	-0.0253	
   107	 0.0434	 0.0102	-0.0602	-0.0042	 0.0957	 0.0258	 0.0702	 0.0264	-0.0590	 0.0124	-0.1025	 0.0022	-0.0602	-0.0043	-0.1036	-0.0145	
   108	 0.1214	 0.0252	-0.0000	 0.0000	 0.1903	 0.0349	 0.1826	 0.0462	-0.0167	 0.0059	-0.0769	 0.0016	-0.0424	 0.0064	-0.0434	-0.0102	
   109	 0.1904	 0.0349	 0.0512	-0.0010	 0.2515	 0.0558	 0.2694	 0.0666	 0.0345	 0.0048	-0.0335	 0.0118	-0.0000	-0.0000	 0.0167	-0.0059	
   110	 0.2505	 0.0392	 0.0946	 0.0092	 0.3206	 0.0655	 0.3473	 0.0817	 0.0779	 0.0150	 0.0178	 0.0108	 0.0345	 0.0048	 0.0768	-0.0016	
   111	 0.2772	 0.0553	 0.1124	 0.0199	 0.3718	 0.0644	 0.4242	 0.0800	 0.1036	 0.0145	 0.0690	 0.0097	 0.0690	 0.0096	 0.1369	 0.0026	
   112	 0.3196	 0.0488	 0.1547	 0.0135	 0.3985	 0.0805	 0.4676	 0.0902	 0.1370	 0.0027	 0.0779	 0.0151	 0.0946	 0.0091	 0.1547	 0.0134	
   113	 0.3374	 0.0596	 0.1725	 0.0242	 0.4330	 0.0854	 0.5021	 0.0951	 0.1292	 0.0140	 0.1035	 0.0145	 0.1202	 0.0086	 0.1971	 0.0069	
   114	 0.3541	 0.0537	 0.2149	 0.0178	 0.4586	 0.0848	 0.5199	 0.1058	 0.1548	 0.0134	 0.1213	 0.0253	 0.1291	 0.0139	 0.2149	 0.0177	
   115	 0.3797	 0.0531	 0.2238	 0.0231	 0.4675	 0.0902	 0.5366	 0.0999	 0.1804	 0.0129	 0.1380	 0.0194	 0.1380	 0.0193	 0.2238	 0.0230	
   116	 0.3797	 0.0531	 0.2494	 0.0226	 0.4842	 0.0843	 0.5366	 0.0999	 0.1893	 0.0183	 0.1547	 0.0135	 0.1469	 0.0247	 0.2327	 0.0284	
   117	 0.3541	 0.0537	 0.2494	 0.0226	 0.4675	 0.0902	 0.5110	 0.1004	 0.2238	 0.0231	 0.1636	 0.0188	 0.1469	 0.0247	 0.2327	 0.0284	
   118	 0.3452	 0.0483	 0.2327	 0.0285	 0.4586	 0.0848	 0.4854	 0.1010	 0.2416	 0.0338	 0.1636	 0.0188	 0.1469	 0.0247	 0.2327	 0.0284	
   119	 0.3530	 0.0370	 0.2405	 0.0172	 0.4419	 0.0907	 0.4676	 0.0902	 0.2761	 0.0387	 0.1804	 0.0129	 0.1469	 0.0247	 0.2327	 0.0284	
   120	 0.3363	 0.0429	 0.2238	 0.0231	 0.4497	 0.0795	 0.4587	 0.0849	 0.2939	 0.0494	 0.1725	 0.0242	 0.1380	 0.0193	 0.2238	 0.0230	
   121	 0.3363	 0.0429	 0.2405	 0.0172	 0.4497	 0.0795	 0.4498	 0.0795	 0.3117	 0.0601	 0.1893	 0.0183	 0.1380	 0.0193	 0.2071	 0.0290	
   122	 0.3196	 0.0488	 0.2405	 0.0172	 0.4497	 0.0795	 0.4409	 0.0741	 0.3206	 0.0655	 0.1814	 0.0296	 0.1380	 0.0193	 0.2071	 0.0290	
   123	 0.3196	 0.0488	 0.2405	 0.0172	 0.4330	 0.0854	 0.4242	 0.0800	 0.3128	 0.0768	 0.1814	 0.0296	 0.1380	 0.0193	 0.2071	 0.0290	
   124	 0.3274	 0.0375	 0.2405	 0.0172	 0.4241	 0.0800	 0.4064	 0.0693	 0.3295	 0.0709	 0.1903	 0.0349	 0.1380	 0.0193	 0.1982	 0.0236	
   125	 0.3107	 0.0435	 0.2238	 0.0231	 0.4074	 0.0859	 0.3808	 0.0698	 0.3217	 0.0822	 0.1903	 0.0349	 0.1213	 0.0252	 0.1893	 0.0182	
   126	 0.3107	 0.0435	 0.2071	 0.0290	 0.3985	 0.0805	 0.3630	 0.0591	 0.3217	 0.0822	 0.1903	 0.0349	 0.1213	 0.0252	 0.1725	 0.0241	
   127	 0.2850	 0.0440	 0.1982	 0.0237	 0.3729	 0.0811	 0.3285	 0.0543	 0.3217	 0.0822	 0.1736	 0.0408	 0.1124	 0.0198	 0.1636	 0.0188	
   128	 0.2761	 0.0386	 0.1893	 0.0183	 0.3551	 0.0703	 0.2772	 0.0553	 0.3217	 0.0822	 0.1736	 0.0408	 0.0957	 0.0258	 0.1380	 0.0193	
   129	 0.2505	 0.0392	 0.1636	 0.0188	 0.3295	 0.0709	 0.2427	 0.0505	 0.3217	 0.0822	 0.1647	 0.0355	 0.0868	 0.0204	 0.1202	 0.0086	
   130	 0.2249	 0.0397	 0.1380	 0.0194	 0.3117	 0.0601	 0.1993	 0.0403	 0.3050	 0.0881	 0.1558	 0.0301	 0.0779	 0.0150	 0.0946	 0.0091	
   131	 0.1993	 0.0402	 0.1124	 0.0199	 0.2772	 0.0553	 0.1559	 0.0301	 0.3050	 0.0881	 0.1391	 0.0360	 0.0612	 0.0209	 0.0601	 0.0043	
   132	 0.1726	 0.0241	 0.0779	 0.0151	 0.2594	 0.0446	 0.0958	 0.0258	 0.2961	 0.0827	 0.1057	 0.0478	 0.0434	 0.0102	 0.0256	-0.0006	
   133	 0.1381	 0.0193	 0.0601	 0.0043	 0.2081	 0.0456	 0.0435	 0.0102	 0.2872	 0.0773	 0.0879	 0.0371	 0.0178	 0.0107	-0.0089	-0.0054	
   134	 0.0957	 0.0257	 0.0256	-0.0005	 0.1903	 0.0349	 0.0000	 0.0000	 0.2537	 0.0891	 0.0712	 0.0430	-0.0079	 0.0113	-0.0434	-0.0102	
   135	 0.0858	 0.0037	-0.0089	-0.0053	 0.1480	 0.0414	-0.0601	-0.0042	 0.2360	 0.0784	 0.0366	 0.0382	-0.0168	 0.0059	-0.0701	-0.0263	
   136	 0.0345	 0.0048	-0.0435	-0.0102	 0.1135	 0.0365	-0.0957	-0.0257	 0.2182	 0.0677	 0.0021	 0.0333	-0.0513	 0.0011	-0.1214	-0.0253	
   137	 0.0000	-0.0000	-0.0947	-0.0091	 0.0790	 0.0317	-0.1558	-0.0300	 0.1925	 0.0682	-0.0324	 0.0285	-0.0769	 0.0016	-0.1648	-0.0355	
   138	-0.0345	-0.0049	-0.1292	-0.0139	 0.0445	 0.0269	-0.1825	-0.0461	 0.1925	 0.0682	-0.0502	 0.0178	-0.1025	 0.0021	-0.1993	-0.0403	
   139	-0.0690	-0.0097	-0.1637	-0.0187	 0.0267	 0.0161	-0.2505	-0.0391	 0.1669	 0.0687	-0.0847	 0.0129	-0.1203	-0.0086	-0.2427	-0.0505	
   140	-0.1035	-0.0145	-0.1904	-0.0349	-0.0079	 0.0113	-0.2939	-0.0493	 0.1413	 0.0693	-0.1192	 0.0081	-0.1459	-0.0081	-0.2772	-0.0553	
   141	-0.1548	-0.0135	-0.2416	-0.0338	-0.0424	 0.0065	-0.3373	-0.0595	 0.1324	 0.0639	-0.1537	 0.0033	-0.1804	-0.0129	-0.3285	-0.0543	
   142	-0.1814	-0.0296	-0.2851	-0.0440	-0.0936	 0.0075	-0.3729	-0.0810	 0.0979	 0.0591	-0.1882	-0.0016	-0.2061	-0.0124	-0.3552	-0.0704	
   143	-0.2160	-0.0344	-0.3196	-0.0488	-0.1114	-0.0032	-0.4330	-0.0853	 0.0634	 0.0542	-0.2228	-0.0064	-0.2238	-0.0231	-0.4064	-0.0693	
   144	-0.2505	-0.0392	-0.3708	-0.0477	-0.1459	-0.0080	-0.4764	-0.0955	 0.0289	 0.0494	-0.2662	-0.0166	-0.2495	-0.0226	-0.4498	-0.0795	
   145	-0.2939	-0.0494	-0.3975	-0.0638	-0.1972	-0.0070	-0.5198	-0.1057	 0.0111	 0.0387	-0.3007	-0.0214	-0.2840	-0.0274	-0.4932	-0.0897	
   146	-0.3451	-0.0483	-0.4409	-0.0740	-0.2317	-0.0118	-0.5800	-0.1100	-0.0067	 0.0279	-0.3519	-0.0204	-0.3096	-0.0269	-0.5366	-0.0999	
   147	-0.3796	-0.0532	-0.4921	-0.0730	-0.2495	-0.0225	-0.6234	-0.1202	-0.0491	 0.0344	-0.3786	-0.0365	-0.3274	-0.0376	-0.5879	-0.0988	
   148	-0.3964	-0.0473	-0.5267	-0.0778	-0.2573	-0.0113	-0.6312	-0.1089	-0.0580	 0.0290	-0.4210	-0.0300	-0.3530	-0.0371	-0.6224	-0.1037	
   149	-0.3618	-0.0424	-0.5267	-0.0778	-0.2139	-0.0011	-0.5711	-0.1046	-0.0747	 0.0349	-0.4466	-0.0295	-0.3619	-0.0424	-0.6146	-0.1149	
   150	-0.2928	-0.0328	-0.5010	-0.0783	-0.1359	 0.0140	-0.4675	-0.0902	-0.0580	 0.0290	-0.4466	-0.0295	-0.3530	-0.0371	-0.5968	-0.1042	
   151	-0.2149	-0.0177	-0.4498	-0.0794	-0.0324	 0.0285	-0.3462	-0.0649	-0.0491	 0.0344	-0.4210	-0.0300	-0.3274	-0.0376	-0.5445	-0.0886	
   152	-0.1459	-0.0081	-0.4064	-0.0692	 0.0455	 0.0435	-0.2583	-0.0279	-0.0067	 0.0279	-0.3775	-0.0198	-0.2929	-0.0328	-0.4754	-0.0790	
   153	-0.0690	-0.0097	-0.3630	-0.0590	 0.1146	 0.0532	-0.1636	-0.0187	 0.0278	 0.0328	-0.3263	-0.0209	-0.2584	-0.0279	-0.4064	-0.0693	
   154	-0.0256	 0.0005	-0.3118	-0.0601	 0.1747	 0.0575	-0.0857	-0.0037	 0.0623	 0.0376	-0.2918	-0.0161	-0.2160	-0.0344	-0.3463	-0.0650	
   155	 0.0089	 0.0053	-0.2772	-0.0553	 0.2092	 0.0623	-0.0423	 0.0065	 0.0879	 0.0371	-0.2740	-0.0053	-0.2071	-0.0290	-0.3117	-0.0602	
   156	 0.0434	 0.0102	-0.2594	-0.0445	 0.2348	 0.0618	-0.0078	 0.0113	 0.1057	 0.0478	-0.2317	-0.0118	-0.1815	-0.0295	-0.2605	-0.0612	
   157	 0.0691	 0.0096	-0.2338	-0.0451	 0.2604	 0.0612	 0.0178	 0.0108	 0.1402	 0.0526	-0.1971	-0.0069	-0.1726	-0.0242	-0.2427	-0.0505	
   158	 0.0947	 0.0091	-0.2082	-0.0456	 0.2693	 0.0666	 0.0189	 0.0274	 0.1569	 0.0467	-0.1715	-0.0075	-0.1559	-0.0301	-0.2338	-0.0451	
   159	 0.1036	 0.0145	-0.1826	-0.0461	 0.2693	 0.0666	 0.0267	 0.0162	 0.1826	 0.0462	-0.1459	-0.0080	-0.1470	-0.0247	-0.2082	-0.0457	
   160	 0.0869	 0.0204	-0.1826	-0.0461	 0.2693	 0.0666	 0.0178	 0.0108	 0.1836	 0.0628	-0.1203	-0.0086	-0.1470	-0.0247	-0.2082	-0.0457	
   161	 0.0780	 0.0150	-0.1915	-0.0515	 0.2604	 0.0612	-0.0167	 0.0060	 0.1925	 0.0682	-0.1281	 0.0027	-0.1470	-0.0247	-0.2082	-0.0457	
   162	 0.0691	 0.0096	-0.2082	-0.0456	 0.2348	 0.0618	-0.0512	 0.0011	 0.1925	 0.0682	-0.1114	-0.0032	-0.1470	-0.0247	-0.2171	-0.0510	
   163	 0.0523	 0.0155	-0.2171	-0.0510	 0.2259	 0.0564	-0.0690	-0.0096	 0.1847	 0.0795	-0.1192	 0.0081	-0.1470	-0.0247	-0.2338	-0.0451	
   164	 0.0602	 0.0043	-0.2338	-0.0451	 0.2259	 0.0564	-0.0779	-0.0150	 0.1925	 0.0682	-0.1359	 0.0140	-0.1637	-0.0188	-0.2427	-0.0505	
   165	 0.0434	 0.0102	-0.2427	-0.0504	 0.2259	 0.0564	-0.0946	-0.0091	 0.1836	 0.0628	-0.1281	 0.0027	-0.1637	-0.0188	-0.2594	-0.0446	
   166	 0.0434	 0.0102	-0.2427	-0.0504	 0.2259	 0.0564	-0.1202	-0.0085	 0.1747	 0.0575	-0.1448	 0.0086	-0.1637	-0.0188	-0.2683	-0.0500	
   167	 0.0434	 0.0102	-0.2427	-0.0504	 0.2092	 0.0623	-0.1291	-0.0139	 0.1580	 0.0634	-0.1616	 0.0145	-0.1804	-0.0129	-0.2683	-0.0500	
   168	 0.0267	 0.0161	-0.2349	-0.0617	 0.2003	 0.0569	-0.1547	-0.0134	 0.1580	 0.0634	-0.1616	 0.0145	-0.1726	-0.0242	-0.2772	-0.0553	
   169	 0.0178	 0.0107	-0.2349	-0.0617	 0.1914	 0.0516	-0.1725	-0.0241	 0.1580	 0.0634	-0.1616	 0.0145	-0.1893	-0.0183	-0.2939	-0.0494	
   170	-0.0078	 0.0112	-0.2683	-0.0499	 0.1658	 0.0521	-0.2238	-0.0230	 0.1580	 0.0634	-0.1537	 0.0033	-0.1982	-0.0236	-0.3028	-0.0548	
   171	-0.0167	 0.0059	-0.2772	-0.0553	 0.1402	 0.0526	-0.2416	-0.0338	 0.1413	 0.0693	-0.1793	 0.0038	-0.2071	-0.0290	-0.3206	-0.0655	
   172	-0.0423	 0.0064	-0.2940	-0.0493	 0.1146	 0.0532	-0.2928	-0.0327	 0.1413	 0.0693	-0.1882	-0.0016	-0.2160	-0.0344	-0.3463	-0.0650	
   173	-0.0601	-0.0043	-0.3118	-0.0601	 0.0968	 0.0424	-0.3195	-0.0488	 0.1324	 0.0639	-0.2139	-0.0010	-0.2416	-0.0338	-0.3808	-0.0698	
   174	-0.0857	-0.0038	-0.3374	-0.0595	 0.0711	 0.0430	-0.3629	-0.0590	 0.1068	 0.0644	-0.2395	-0.0005	-0.2673	-0.0333	-0.4153	-0.0747	
   175	-0.1202	-0.0086	-0.3552	-0.0703	 0.0534	 0.0322	-0.4063	-0.0692	 0.0890	 0.0537	-0.2740	-0.0053	-0.2762	-0.0387	-0.4665	-0.0736	
   176	-0.1548	-0.0135	-0.3975	-0.0638	 0.0188	 0.0274	-0.4575	-0.0681	 0.0467	 0.0601	-0.2918	-0.0161	-0.3018	-0.0381	-0.4932	-0.0897	
   177	-0.1893	-0.0183	-0.4320	-0.0687	-0.0068	 0.0279	-0.4842	-0.0842	 0.0289	 0.0494	-0.3174	-0.0155	-0.3107	-0.0435	-0.5356	-0.0833	
   178	-0.2238	-0.0231	-0.4498	-0.0794	-0.0491	 0.0344	-0.5277	-0.0944	 0.0200	 0.0440	-0.3519	-0.0204	-0.3441	-0.0317	-0.5701	-0.0881	
   179	-0.2583	-0.0279	-0.4921	-0.0730	-0.0669	 0.0236	-0.5789	-0.0934	-0.0146	 0.0392	-0.3775	-0.0198	-0.3530	-0.0371	-0.5879	-0.0988	
   180	-0.2928	-0.0328	-0.5099	-0.0837	-0.1014	 0.0188	-0.6134	-0.0982	-0.0323	 0.0285	-0.4121	-0.0247	-0.3708	-0.0478	-0.6224	-0.1037	
   181	-0.3184	-0.0322	-0.5356	-0.0832	-0.1270	 0.0193	-0.6568	-0.1084	-0.0580	 0.0290	-0.4466	-0.0295	-0.3964	-0.0473	-0.6569	-0.1085	
   182	-0.3529	-0.0371	-0.5701	-0.0880	-0.1448	 0.0086	-0.7002	-0.1186	-0.0925	 0.0242	-0.4811	-0.0343	-0.4220	-0.0467	-0.7081	-0.1074	
   183	-0.3875	-0.0419	-0.6046	-0.0928	-0.1794	 0.0038	-0.7436	-0.1288	-0.0925	 0.0242	-0.5067	-0.0338	-0.4398	-0.0575	-0.7348	-0.1235	
   184	-0.4220	-0.0467	-0.6391	-0.0977	-0.2217	 0.0102	-0.7871	-0.1390	-0.1181	 0.0247	-0.5245	-0.0445	-0.4655	-0.0569	-0.7693	-0.1284	
   185	-0.4398	-0.0575	-0.6736	-0.1025	-0.2395	-0.0005	-0.8305	-0.1492	-0.1437	 0.0252	-0.5590	-0.0494	-0.4911	-0.0564	-0.8206	-0.1273	
   186	-0.4832	-0.0677	-0.7249	-0.1014	-0.2740	-0.0054	-0.8817	-0.1481	-0.1615	 0.0145	-0.5935	-0.0542	-0.5167	-0.0558	-0.8384	-0.1380	
   187	-0.5177	-0.0725	-0.7594	-0.1063	-0.3085	-0.0102	-0.9084	-0.1642	-0.1960	 0.0097	-0.6280	-0.0590	-0.5345	-0.0666	-0.8729	-0.1428	
   188	-0.5522	-0.0773	-0.7939	-0.1111	-0.3341	-0.0096	-0.9675	-0.1519	-0.2227	-0.0064	-0.6626	-0.0639	-0.5601	-0.0660	-0.9241	-0.1418	
   189	-0.5689	-0.0714	-0.8028	-0.1165	-0.3509	-0.0037	-0.9596	-0.1632	-0.2740	-0.0054	-0.6971	-0.0687	-0.5857	-0.0655	-0.9419	-0.1525	
   190	-0.5433	-0.0720	-0.8028	-0.1165	-0.3252	-0.0043	-0.9329	-0.1471	-0.2918	-0.0161	-0.7149	-0.0794	-0.5946	-0.0709	-0.9675	-0.1520	
   191	-0.4910	-0.0564	-0.7939	-0.1111	-0.2562	 0.0054	-0.8550	-0.1320	-0.2839	-0.0274	-0.7316	-0.0735	-0.5946	-0.0709	-0.9586	-0.1466	
   192	-0.4220	-0.0467	-0.7594	-0.1063	-0.1783	 0.0204	-0.7515	-0.1175	-0.2918	-0.0161	-0.7227	-0.0681	-0.5857	-0.0655	-0.9241	-0.1418	
   193	-0.3362	-0.0430	-0.6992	-0.1020	-0.1003	 0.0355	-0.6390	-0.0977	-0.2583	-0.0279	-0.7049	-0.0574	-0.5512	-0.0607	-0.8551	-0.1321	
   194	-0.2839	-0.0274	-0.6480	-0.1030	-0.0224	 0.0505	-0.5433	-0.0719	-0.2583	-0.0279	-0.6626	-0.0639	-0.5089	-0.0671	-0.8117	-0.1219	
   195	-0.2572	-0.0113	-0.6135	-0.0982	 0.0210	 0.0607	-0.4743	-0.0622	-0.2416	-0.0338	-0.6280	-0.0590	-0.4911	-0.0564	-0.7515	-0.1176	
   196	-0.2227	-0.0065	-0.5790	-0.0934	 0.0722	 0.0596	-0.4309	-0.0520	-0.2416	-0.0338	-0.6024	-0.0596	-0.4655	-0.0569	-0.7081	-0.1074	
   197	-0.1971	-0.0070	-0.5612	-0.0826	 0.0811	 0.0650	-0.3963	-0.0472	-0.2249	-0.0397	-0.5935	-0.0542	-0.4398	-0.0575	-0.6736	-0.1026	
   198	-0.1715	-0.0075	-0.5356	-0.0832	 0.0900	 0.0703	-0.3707	-0.0477	-0.2082	-0.0456	-0.5679	-0.0547	-0.4309	-0.0521	-0.6647	-0.0972	
   199	-0.1715	-0.0075	-0.5188	-0.0891	 0.1067	 0.0644	-0.3707	-0.0477	-0.1914	-0.0515	-0.5512	-0.0606	-0.4309	-0.0521	-0.6480	-0.1031	
   200	-0.1715	-0.0075	-0.5099	-0.0837	 0.1067	 0.0644	-0.3874	-0.0418	-0.1993	-0.0403	-0.5345	-0.0665	-0.4142	-0.0580	-0.6480	-0.1031	
   201	-0.1804	-0.0129	-0.5267	-0.0778	 0.0978	 0.0591	-0.3885	-0.0585	-0.1825	-0.0462	-0.5345	-0.0665	-0.4142	-0.0580	-0.6480	-0.1031	
   202	-0.1971	-0.0070	-0.5188	-0.0891	 0.0722	 0.0596	-0.4141	-0.0579	-0.1825	-0.0462	-0.5512	-0.0606	-0.4309	-0.0521	-0.6569	-0.1085	
   203	-0.2060	-0.0124	-0.5356	-0.0832	 0.0555	 0.0655	-0.4398	-0.0574	-0.1993	-0.0403	-0.5679	-0.0547	-0.4231	-0.0634	-0.6903	-0.0967	
   204	-0.2149	-0.0177	-0.5356	-0.0832	 0.0633	 0.0542	-0.4487	-0.0628	-0.2082	-0.0456	-0.5601	-0.0660	-0.4398	-0.0575	-0.6992	-0.1020	
   205	-0.2149	-0.0177	-0.5356	-0.0832	 0.0466	 0.0601	-0.4575	-0.0681	-0.2260	-0.0564	-0.5690	-0.0714	-0.4398	-0.0575	-0.7081	-0.1074	
   206	-0.2227	-0.0065	-0.5356	-0.0832	 0.0466	 0.0601	-0.4575	-0.0681	-0.2349	-0.0617	-0.5690	-0.0714	-0.4398	-0.0575	-0.7248	-0.1015	
   207	-0.2227	-0.0065	-0.5267	-0.0778	 0.0466	 0.0601	-0.4575	-0.0681	-0.2605	-0.0612	-0.5857	-0.0655	-0.4487	-0.0628	-0.7170	-0.1128	
   208	-0.2227	-0.0065	-0.5267	-0.0778	 0.0377	 0.0548	-0.4743	-0.0622	-0.2516	-0.0558	-0.5779	-0.0767	-0.4487	-0.0628	-0.7259	-0.1181	
   209	-0.2227	-0.0065	-0.5267	-0.0778	 0.0210	 0.0607	-0.4921	-0.0730	-0.2260	-0.0564	-0.5857	-0.0655	-0.4487	-0.0628	-0.7259	-0.1181	
   210	-0.2316	-0.0118	-0.5434	-0.0719	 0.0121	 0.0553	-0.5099	-0.0837	-0.2249	-0.0397	-0.5857	-0.0655	-0.4655	-0.0569	-0.7348	-0.1235	
   211	-0.2572	-0.0113	-0.5523	-0.0773	-0.0224	 0.0505	-0.5533	-0.0939	-0.1993	-0.0403	-0.5690	-0.0714	-0.4744	-0.0623	-0.7604	-0.1230	
   212	-0.2661	-0.0167	-0.5779	-0.0767	-0.0569	 0.0457	-0.5967	-0.1041	-0.2071	-0.0290	-0.5779	-0.0767	-0.5000	-0.0618	-0.7950	-0.1278	
   213	-0.3085	-0.0102	-0.6035	-0.0762	-0.0747	 0.0349	-0.6401	-0.1143	-0.2071	-0.0290	-0.5946	-0.0708	-0.5167	-0.0558	-0.8295	-0.1326	
   214	-0.3263	-0.0210	-0.6213	-0.0869	-0.1092	 0.0301	-0.6835	-0.1245	-0.2327	-0.0284	-0.6202	-0.0703	-0.5256	-0.0612	-0.8640	-0.1375	
   215	-0.3608	-0.0258	-0.6469	-0.0864	-0.1438	 0.0253	-0.7269	-0.1347	-0.2672	-0.0333	-0.6380	-0.0810	-0.5512	-0.0607	-0.9152	-0.1364	
   216	-0.3864	-0.0253	-0.6647	-0.0971	-0.1783	 0.0204	-0.7614	-0.1395	-0.3017	-0.0381	-0.6636	-0.0805	-0.5601	-0.0660	-0.9497	-0.1412	
   217	-0.4042	-0.0360	-0.6903	-0.0966	-0.2128	 0.0156	-0.8127	-0.1385	-0.3195	-0.0489	-0.7060	-0.0741	-0.5857	-0.0655	-0.9675	-0.1520	
   218	-0.4298	-0.0355	-0.7160	-0.0961	-0.2306	 0.0048	-0.8472	-0.1433	-0.3284	-0.0542	-0.7238	-0.0848	-0.6035	-0.0763	-1.0020	-0.1568	
   219	-0.4387	-0.0408	-0.7160	-0.0961	-0.2562	 0.0054	-0.8650	-0.1540	-0.3284	-0.0542	-0.7494	-0.0843	-0.6124	-0.0816	-1.0198	-0.1675	
   220	-0.4476	-0.0462	-0.7416	-0.0955	-0.2907	 0.0006	-0.9084	-0.1642	-0.3362	-0.0429	-0.7583	-0.0896	-0.6547	-0.0752	-1.0711	-0.1665	
   221	-0.4565	-0.0516	-0.7672	-0.0950	-0.3085	-0.0102	-0.9696	-0.1852	-0.3195	-0.0489	-0.7750	-0.0837	-0.6725	-0.0859	-1.1145	-0.1767	
   222	-0.4821	-0.0510	-0.7761	-0.1003	-0.3430	-0.0150	-1.0475	-0.2002	-0.3017	-0.0381	-0.7928	-0.0945	-0.6903	-0.0967	-1.1757	-0.1976	
   223	-0.5077	-0.0505	-0.8017	-0.0998	-0.3775	-0.0198	-1.1265	-0.2319	-0.3006	-0.0215	-0.8184	-0.0939	-0.7249	-0.1015	-1.2547	-0.2293	
   224	-0.5333	-0.0500	-0.8106	-0.1052	-0.4288	-0.0188	-1.1977	-0.2748	-0.2928	-0.0327	-0.8529	-0.0987	-0.7516	-0.1176	-1.3671	-0.2492	
   225	-0.5422	-0.0553	-0.8106	-0.1052	-0.4633	-0.0236	-1.2589	-0.2958	-0.3352	-0.0263	-0.8796	-0.1149	-0.7782	-0.1337	-1.4718	-0.2803	
   226	-0.5511	-0.0607	-0.8184	-0.0939	-0.4811	-0.0343	-1.3024	-0.3060	-0.3786	-0.0365	-0.9141	-0.1197	-0.8295	-0.1326	-1.5675	-0.3061	
   227	-0.5255	-0.0612	-0.7839	-0.0891	-0.4978	-0.0284	-1.2945	-0.3173	-0.4053	-0.0526	-0.9241	-0.1417	-0.8562	-0.1487	-1.6621	-0.3152	
   228	-0.4743	-0.0623	-0.7316	-0.0735	-0.4722	-0.0290	-1.2422	-0.3017	-0.4487	-0.0628	-0.9408	-0.1358	-0.8651	-0.1541	-1.7056	-0.3254	
   229	-0.4309	-0.0521	-0.6615	-0.0472	-0.4220	-0.0467	-1.1465	-0.2759	-0.4409	-0.0741	-0.9152	-0.1363	-0.8573	-0.1654	-1.6888	-0.3313	
   230	-0.3807	-0.0698	-0.5579	-0.0327	-0.3975	-0.0639	-1.0252	-0.2507	-0.4241	-0.0800	-0.8807	-0.1315	-0.8651	-0.1541	-1.6543	-0.3265	
   231	-0.3740	-0.0977	-0.4711	-0.0123	-0.4164	-0.0913	-0.9205	-0.2195	-0.4152	-0.0746	-0.8373	-0.1213	-0.8395	-0.1546	-1.5775	-0.3281	
   232	-0.4117	-0.1525	-0.3754	 0.0135	-0.4797	-0.1455	-0.8248	-0.1938	-0.3896	-0.0752	-0.7850	-0.1057	-0.8138	-0.1552	-1.5173	-0.3238	
   233	-0.5107	-0.2282	-0.2807	 0.0226	-0.6477	-0.2309	-0.7369	-0.1567	-0.3562	-0.0870	-0.7248	-0.1014	-0.7882	-0.1557	-1.4572	-0.3195	
   234	-0.6452	-0.3254	-0.2195	 0.0435	-0.8702	-0.3651	-0.6412	-0.1310	-0.3562	-0.0870	-0.6814	-0.0912	-0.7626	-0.1563	-1.4060	-0.3206	
   235	-0.8321	-0.4382	-0.1516	 0.0366	-1.1706	-0.5144	-0.5700	-0.0880	-0.3562	-0.0870	-0.6380	-0.0810	-0.7537	-0.1509	-1.3547	-0.3216	
   236	-1.0268	-0.5396	-0.1082	 0.0468	-1.4809	-0.6856	-0.4988	-0.0450	-0.3484	-0.0983	-0.6035	-0.0762	-0.7281	-0.1514	-1.3280	-0.3055	
   237	-1.2204	-0.6245	-0.0569	 0.0457	-1.7913	-0.8569	-0.4365	-0.0075	-0.3484	-0.0983	-0.5768	-0.0601	-0.7192	-0.1461	-1.2846	-0.2953	
   238	-1.3706	-0.6991	-0.0135	 0.0559	-2.0828	-1.0008	-0.3831	 0.0248	-0.3562	-0.0870	-0.5501	-0.0440	-0.7181	-0.1294	-1.2323	-0.2798	
   239	-1.4930	-0.7410	 0.0466	 0.0602	-2.3287	-1.1012	-0.3475	 0.0462	-0.3473	-0.0816	-0.5401	-0.0220	-0.7014	-0.1353	-1.1800	-0.2642	
   240	-1.5709	-0.7560	 0.1156	 0.0698	-2.4622	-1.1818	-0.3030	 0.0731	-0.3384	-0.0762	-0.5223	-0.0112	-0.7092	-0.1240	-1.1366	-0.2540	
   241	-1.5798	-0.7614	 0.1680	 0.0854	-2.5490	-1.2022	-0.2753	 0.1058	-0.3384	-0.0762	-0.5302	 0.0000	-0.7259	-0.1181	-1.1010	-0.2325	
   242	-1.5620	-0.7507	 0.2025	 0.0902	-2.5579	-1.2075	-0.2141	 0.1268	-0.3551	-0.0703	-0.5213	 0.0054	-0.7181	-0.1294	-1.0665	-0.2277	
   243	-1.5353	-0.7345	 0.2281	 0.0897	-2.5401	-1.1968	-0.1696	 0.1536	-0.3562	-0.0870	-0.5380	 0.0113	-0.7348	-0.1235	-1.0576	-0.2223	
   244	-1.5086	-0.7184	 0.2281	 0.0897	-2.5045	-1.1753	-0.1262	 0.1638	-0.3818	-0.0864	-0.5469	 0.0060	-0.7437	-0.1289	-1.0654	-0.2110	
   245	-1.4908	-0.7077	 0.2192	 0.0843	-2.4600	-1.1485	-0.0995	 0.1799	-0.3907	-0.0918	-0.5558	 0.0006	-0.7526	-0.1342	-1.0743	-0.2164	
   246	-1.4563	-0.7029	 0.2103	 0.0790	-2.4155	-1.1216	-0.0827	 0.1740	-0.3996	-0.0972	-0.5814	 0.0011	-0.7615	-0.1396	-1.0921	-0.2271	
   247	-1.4207	-0.6814	 0.1758	 0.0741	-2.3611	-1.0728	-0.0916	 0.1687	-0.3918	-0.1085	-0.5992	-0.0096	-0.7871	-0.1391	-1.1433	-0.2261	
   248	-1.3506	-0.6551	 0.1580	 0.0634	-2.2632	-1.0137	-0.1094	 0.1579	-0.4085	-0.1025	-0.6170	-0.0204	-0.8128	-0.1385	-1.1957	-0.2416	
   249	-1.2282	-0.6132	 0.1146	 0.0532	-2.1297	-0.9332	-0.1618	 0.1423	-0.3918	-0.1085	-0.6348	-0.0311	-0.8306	-0.1493	-1.2480	-0.2572	
   250	-1.0680	-0.5166	 0.0800	 0.0484	-1.9439	-0.8371	-0.2230	 0.1214	-0.3740	-0.0977	-0.6515	-0.0252	-0.8395	-0.1546	-1.3092	-0.2781	
   251	-0.8744	-0.4317	 0.0623	 0.0376	-1.7304	-0.7082	-0.3020	 0.0897	-0.3295	-0.0709	-0.6604	-0.0306	-0.8405	-0.1713	-1.3615	-0.2937	
   252	-0.6798	-0.3302	 0.0534	 0.0323	-1.5179	-0.5960	-0.3732	 0.0468	-0.2516	-0.0558	-0.6515	-0.0252	-0.8573	-0.1654	-1.4138	-0.3093	
   253	-0.5118	-0.2449	 0.0366	 0.0382	-1.3232	-0.4945	-0.4522	 0.0151	-0.1804	-0.0129	-0.6170	-0.0204	-0.8662	-0.1707	-1.4405	-0.3254	
   254	-0.3705	-0.1756	 0.0455	 0.0435	-1.1552	-0.4091	-0.5301	 0.0001	-0.1014	 0.0188	-0.5903	-0.0042	-0.8829	-0.1648	-1.4583	-0.3361	
   255	-0.2815	-0.1219	 0.0466	 0.0602	-1.0395	-0.3393	-0.5913	-0.0209	-0.0391	 0.0564	-0.5636	 0.0119	-0.8918	-0.1702	-1.4839	-0.3356	
   256	-0.2359	-0.0784	 0.0644	 0.0709	-0.9516	-0.3023	-0.6436	-0.0365	 0.0054	 0.0832	-0.5280	 0.0333	-0.9085	-0.1643	-1.4928	-0.3410	
   257	-0.2003	-0.0569	 0.0655	 0.0876	-0.8904	-0.2813	-0.6959	-0.0520	 0.0410	 0.1047	-0.5013	 0.0494	-0.9174	-0.1697	-1.5017	-0.3463	
   258	-0.1992	-0.0403	 0.0666	 0.1042	-0.8804	-0.2593	-0.7561	-0.0563	 0.0588	 0.1154	-0.4668	 0.0543	-0.9430	-0.1691	-1.5184	-0.3404	
   259	-0.2160	-0.0344	 0.0666	 0.1042	-0.8883	-0.2480	-0.8084	-0.0719	 0.0677	 0.1208	-0.4746	 0.0656	-0.9608	-0.1799	-1.5362	-0.3512	
   260	-0.2416	-0.0339	 0.0498	 0.1101	-0.8972	-0.2534	-0.8596	-0.0708	 0.0677	 0.1208	-0.4657	 0.0709	-0.9697	-0.1852	-1.5697	-0.3394	
   261	-0.2761	-0.0387	 0.0164	 0.1219	-0.9228	-0.2529	-0.9030	-0.0810	 0.0421	 0.1214	-0.4824	 0.0768	-0.9953	-0.1847	-1.5785	-0.3447	
   262	-0.3017	-0.0381	-0.0092	 0.1225	-0.9484	-0.2523	-0.9286	-0.0805	 0.0243	 0.1106	-0.5081	 0.0774	-1.0209	-0.1842	-1.5953	-0.3388	
   263	-0.3106	-0.0435	-0.0348	 0.1230	-0.9484	-0.2523	-0.9286	-0.0805	-0.0181	 0.1171	-0.5426	 0.0725	-1.0298	-0.1895	-1.5953	-0.3388	
   264	-0.3017	-0.0381	-0.0604	 0.1235	-0.9139	-0.2475	-0.8852	-0.0703	-0.0191	 0.1004	-0.5771	 0.0677	-1.0465	-0.1836	-1.5864	-0.3334	
   265	-0.2494	-0.0226	-0.0515	 0.1289	-0.8359	-0.2325	-0.7906	-0.0611	-0.0191	 0.1004	-0.6027	 0.0682	-1.0209	-0.1842	-1.5764	-0.3114	
   266	-0.1804	-0.0129	-0.0259	 0.1284	-0.7491	-0.2121	-0.6781	-0.0413	-0.0191	 0.1004	-0.6038	 0.0516	-0.9953	-0.1847	-1.5163	-0.3071	
   267	-0.1192	 0.0080	-0.0003	 0.1278	-0.6534	-0.1863	-0.5579	-0.0327	 0.0065	 0.0999	-0.5871	 0.0457	-0.9608	-0.1799	-1.4472	-0.2975	
   268	-0.0334	 0.0118	 0.0175	 0.1386	-0.5587	-0.1772	-0.4710	-0.0123	 0.0488	 0.0934	-0.5703	 0.0398	-0.9174	-0.1697	-1.3860	-0.2765	
   269	 0.0100	 0.0220	 0.0509	 0.1268	-0.4975	-0.1562	-0.3686	-0.0144	 0.1000	 0.0924	-0.5447	 0.0392	-0.8662	-0.1707	-1.3092	-0.2781	
   270	 0.0278	 0.0327	 0.0598	 0.1321	-0.4452	-0.1407	-0.3163	 0.0011	 0.1178	 0.1031	-0.5358	 0.0446	-0.8316	-0.1659	-1.2569	-0.2626	
   271	 0.0534	 0.0322	 0.0687	 0.1375	-0.3940	-0.1417	-0.2561	 0.0054	 0.1524	 0.1079	-0.5024	 0.0328	-0.8049	-0.1498	-1.2134	-0.2524	
   272	 0.0790	 0.0316	 0.0854	 0.1316	-0.3673	-0.1256	-0.2294	 0.0215	 0.1780	 0.1074	-0.4601	 0.0264	-0.7704	-0.1450	-1.1700	-0.2422	
   273	 0.0879	 0.0370	 0.1111	 0.1311	-0.3495	-0.1149	-0.1949	 0.0264	 0.1958	 0.1181	-0.4512	 0.0317	-0.7281	-0.1514	-1.1433	-0.2261	
   274	 0.1135	 0.0365	 0.1200	 0.1364	-0.3072	-0.1213	-0.1693	 0.0258	 0.2303	 0.1230	-0.4166	 0.0366	-0.6936	-0.1466	-1.0921	-0.2271	
   275	 0.1135	 0.0365	 0.1278	 0.1252	-0.2983	-0.1160	-0.1615	 0.0145	 0.2570	 0.1391	-0.3910	 0.0360	-0.6758	-0.1359	-1.0576	-0.2223	
   276	 0.1135	 0.0365	 0.1189	 0.1198	-0.2983	-0.1160	-0.1704	 0.0092	 0.2915	 0.1439	-0.3654	 0.0355	-0.6580	-0.1251	-1.0487	-0.2169	
   277	 0.0968	 0.0424	 0.1011	 0.1090	-0.2894	-0.1106	-0.1882	-0.0016	 0.3182	 0.1600	-0.3643	 0.0521	-0.6491	-0.1197	-1.0231	-0.2175	
   278	 0.0890	 0.0537	 0.0587	 0.1155	-0.2805	-0.1052	-0.2216	 0.0103	 0.3360	 0.1707	-0.3309	 0.0403	-0.6402	-0.1144	-1.0142	-0.2121	
   279	 0.0890	 0.0537	 0.0409	 0.1047	-0.2716	-0.0999	-0.2138	-0.0010	 0.3449	 0.1761	-0.3298	 0.0570	-0.6146	-0.1149	-0.9886	-0.2126	
   280	 0.0890	 0.0537	 0.0231	 0.0940	-0.2627	-0.0945	-0.2383	 0.0162	 0.3449	 0.1761	-0.3376	 0.0682	-0.5968	-0.1042	-0.9708	-0.2019	
   281	 0.0890	 0.0537	 0.0143	 0.0886	-0.2460	-0.1004	-0.2216	 0.0103	 0.3271	 0.1654	-0.3287	 0.0736	-0.5957	-0.0875	-0.9441	-0.1858	
   282	 0.0979	 0.0590	-0.0025	 0.0945	-0.2371	-0.0950	-0.2216	 0.0103	 0.2759	 0.1665	-0.3198	 0.0790	-0.5779	-0.0768	-0.9096	-0.1810	
   283	 0.0979	 0.0590	 0.0054	 0.0833	-0.2449	-0.0837	-0.2216	 0.0103	 0.2403	 0.1450	-0.3109	 0.0843	-0.5523	-0.0773	-0.9085	-0.1643	
   284	 0.0979	 0.0590	 0.0054	 0.0833	-0.2449	-0.0837	-0.2383	 0.0162	 0.1968	 0.1348	-0.3198	 0.0790	-0.5434	-0.0720	-0.8996	-0.1590	
   285	 0.0890	 0.0537	-0.0114	 0.0892	-0.2538	-0.0891	-0.2639	 0.0167	 0.1702	 0.1187	-0.3366	 0.0849	-0.5345	-0.0666	-0.8996	-0.1590	
   286	 0.0634	 0.0542	-0.0203	 0.0838	-0.2705	-0.0832	-0.2906	 0.0006	 0.1524	 0.1079	-0.3622	 0.0854	-0.5512	-0.0607	-0.9085	-0.1643	
   287	 0.0378	 0.0547	-0.0459	 0.0843	-0.2961	-0.0827	-0.3341	-0.0096	 0.1267	 0.1085	-0.3544	 0.0741	-0.5512	-0.0607	-0.9174	-0.1697	
   288	 0.0033	 0.0499	-0.0804	 0.0795	-0.3139	-0.0934	-0.3775	-0.0198	 0.1178	 0.1031	-0.3800	 0.0747	-0.5601	-0.0660	-0.9352	-0.1804	
   289	-0.0234	 0.0338	-0.1060	 0.0801	-0.3395	-0.0929	-0.4376	-0.0241	 0.1011	 0.1090	-0.4145	 0.0698	-0.5768	-0.0601	-0.9775	-0.1740	
   290	-0.0580	 0.0290	-0.1238	 0.0693	-0.3740	-0.0977	-0.4810	-0.0343	 0.1011	 0.1090	-0.4323	 0.0591	-0.5857	-0.0655	-0.9953	-0.1847	
   291	-0.0925	 0.0241	-0.1583	 0.0645	-0.4164	-0.0913	-0.5077	-0.0504	 0.0844	 0.1149	-0.4668	 0.0543	-0.6113	-0.0650	-1.0209	-0.1842	
   292	-0.1437	 0.0252	-0.1839	 0.0650	-0.4342	-0.1020	-0.5511	-0.0606	 0.0922	 0.1036	-0.5013	 0.0494	-0.6202	-0.0703	-1.0554	-0.1890	
   293	-0.1704	 0.0091	-0.2185	 0.0602	-0.4765	-0.0956	-0.6113	-0.0649	 0.0755	 0.1095	-0.5358	 0.0446	-0.6458	-0.0698	-1.0899	-0.1939	
   294	-0.2049	 0.0043	-0.2530	 0.0554	-0.5110	-0.1004	-0.6547	-0.0751	 0.0755	 0.1095	-0.5536	 0.0339	-0.6636	-0.0805	-1.1412	-0.1928	
   295	-0.2472	 0.0107	-0.2875	 0.0505	-0.5366	-0.0999	-0.6981	-0.0853	 0.0677	 0.1208	-0.5881	 0.0290	-0.6893	-0.0800	-1.1757	-0.1976	
   296	-0.2818	 0.0059	-0.3309	 0.0403	-0.5544	-0.1106	-0.7582	-0.0896	 0.0677	 0.1208	-0.5970	 0.0237	-0.6982	-0.0854	-1.2102	-0.2024	
   297	-0.3163	 0.0011	-0.3654	 0.0355	-0.5968	-0.1041	-0.8105	-0.1052	 0.0677	 0.1208	-0.6227	 0.0242	-0.7071	-0.0907	-1.2280	-0.2132	
   298	-0.3252	-0.0043	-0.4166	 0.0366	-0.6057	-0.1095	-0.8361	-0.1046	 0.0677	 0.1208	-0.6483	 0.0247	-0.7405	-0.0789	-1.2536	-0.2126	
   299	-0.3252	-0.0043	-0.4177	 0.0199	-0.5968	-0.1041	-0.8361	-0.1046	 0.0431	 0.1380	-0.6817	 0.0366	-0.7327	-0.0902	-1.2703	-0.2067	
   300	-0.2985	 0.0118	-0.4344	 0.0258	-0.5455	-0.1052	-0.7838	-0.0891	 0.0520	 0.1434	-0.6650	 0.0307	-0.7405	-0.0789	-1.2536	-0.2126	
   301	-0.2294	 0.0215	-0.4088	 0.0253	-0.4843	-0.0843	-0.6970	-0.0687	 0.0777	 0.1428	-0.6472	 0.0414	-0.7149	-0.0795	-1.2102	-0.2024	
   302	-0.1682	 0.0424	-0.3743	 0.0301	-0.3986	-0.0805	-0.5935	-0.0542	 0.1044	 0.1589	-0.6038	 0.0516	-0.6882	-0.0634	-1.1323	-0.1874	
   303	-0.0992	 0.0521	-0.3231	 0.0290	-0.3206	-0.0655	-0.4977	-0.0284	 0.1556	 0.1579	-0.5682	 0.0731	-0.6370	-0.0644	-1.0544	-0.1724	
   304	-0.0302	 0.0617	-0.2797	 0.0392	-0.2516	-0.0558	-0.4109	-0.0080	 0.1823	 0.1740	-0.4913	 0.0715	-0.5935	-0.0542	-0.9597	-0.1632	
   305	 0.0132	 0.0719	-0.2284	 0.0382	-0.1915	-0.0515	-0.3330	 0.0070	 0.2079	 0.1734	-0.4479	 0.0817	-0.5501	-0.0440	-0.8818	-0.1482	
   306	 0.0645	 0.0708	-0.1772	 0.0371	-0.1481	-0.0413	-0.2639	 0.0167	 0.2335	 0.1729	-0.4134	 0.0865	-0.5156	-0.0392	-0.8128	-0.1386	
   307	 0.0990	 0.0757	-0.1505	 0.0532	-0.1136	-0.0365	-0.1949	 0.0264	 0.2335	 0.1729	-0.3700	 0.0967	-0.4811	-0.0344	-0.7437	-0.1289	
   308	 0.1335	 0.0805	-0.1071	 0.0634	-0.0790	-0.0317	-0.1682	 0.0425	 0.2335	 0.1729	-0.3444	 0.0962	-0.4555	-0.0349	-0.7081	-0.1074	
   309	 0.1591	 0.0800	-0.0637	 0.0736	-0.0612	-0.0209	-0.1337	 0.0473	 0.2335	 0.1729	-0.3099	 0.1010	-0.4377	-0.0242	-0.6736	-0.1026	
   310	 0.1680	 0.0853	-0.0292	 0.0784	-0.0445	-0.0268	-0.1170	 0.0414	 0.2413	 0.1616	-0.2842	 0.1004	-0.4121	-0.0247	-0.6391	-0.0977	
   311	 0.1680	 0.0853	 0.0054	 0.0833	-0.0612	-0.0209	-0.1259	 0.0360	 0.2492	 0.1503	-0.2753	 0.1058	-0.4032	-0.0193	-0.6391	-0.0977	
   312	 0.1680	 0.0853	 0.0231	 0.0940	-0.0780	-0.0150	-0.1526	 0.0199	 0.2235	 0.1509	-0.2842	 0.1004	-0.4032	-0.0193	-0.6569	-0.1085	
   313	 0.1680	 0.0853	 0.0320	 0.0994	-0.0701	-0.0263	-0.1793	 0.0038	 0.2225	 0.1342	-0.2764	 0.0892	-0.4032	-0.0193	-0.7003	-0.1187	
   314	 0.1680	 0.0853	 0.0577	 0.0988	-0.0869	-0.0204	-0.2060	-0.0123	 0.1968	 0.1348	-0.2942	 0.0784	-0.4032	-0.0193	-0.7437	-0.1289	
   315	 0.1680	 0.0853	 0.0587	 0.1155	-0.0869	-0.0204	-0.2327	-0.0284	 0.1702	 0.1187	-0.3287	 0.0736	-0.3953	-0.0306	-0.7871	-0.1391	
   316	 0.1847	 0.0794	 0.0844	 0.1150	-0.0701	-0.0263	-0.2416	-0.0338	 0.1435	 0.1026	-0.3465	 0.0629	-0.4121	-0.0247	-0.8305	-0.1493	
   317	 0.1847	 0.0794	 0.1022	 0.1257	-0.0701	-0.0263	-0.2505	-0.0391	 0.1079	 0.0811	-0.3643	 0.0521	-0.4121	-0.0247	-0.8572	-0.1654	
   318	 0.1847	 0.0794	 0.1111	 0.1311	-0.0780	-0.0150	-0.2505	-0.0391	 0.0645	 0.0709	-0.3821	 0.0414	-0.4121	-0.0247	-0.8996	-0.1590	
   319	 0.1847	 0.0794	 0.1367	 0.1305	-0.0780	-0.0150	-0.2505	-0.0391	 0.0210	 0.0607	-0.3988	 0.0473	-0.3953	-0.0306	-0.9007	-0.1756	
   320	 0.1847	 0.0794	 0.1545	 0.1413	-0.0869	-0.0204	-0.2594	-0.0445	 0.0022	 0.0333	-0.4166	 0.0366	-0.4121	-0.0247	-0.9352	-0.1804	
   321	 0.1758	 0.0741	 0.1634	 0.1466	-0.1125	-0.0199	-0.2683	-0.0499	-0.0491	 0.0344	-0.4423	 0.0371	-0.4121	-0.0247	-0.9697	-0.1853	
   322	 0.1591	 0.0800	 0.1723	 0.1520	-0.1303	-0.0306	-0.3028	-0.0547	-0.0501	 0.0177	-0.4433	 0.0204	-0.4210	-0.0301	-1.0209	-0.1842	
   323	 0.1502	 0.0746	 0.1812	 0.1574	-0.1481	-0.0413	-0.3295	-0.0708	-0.0590	 0.0124	-0.4690	 0.0210	-0.4299	-0.0354	-1.0643	-0.1944	
   324	 0.1324	 0.0639	 0.1733	 0.1686	-0.1915	-0.0515	-0.3896	-0.0751	-0.0590	 0.0124	-0.4867	 0.0102	-0.4555	-0.0349	-1.0999	-0.2159	
   325	 0.0979	 0.0590	 0.1733	 0.1686	-0.2438	-0.0671	-0.4508	-0.0961	-0.0836	 0.0295	-0.5124	 0.0108	-0.4733	-0.0456	-1.1522	-0.2314	
   326	 0.0289	 0.0494	 0.1566	 0.1746	-0.3217	-0.0821	-0.5120	-0.1170	-0.0836	 0.0295	-0.5380	 0.0113	-0.4989	-0.0451	-1.2213	-0.2411	
   327	-0.0245	 0.0172	 0.1399	 0.1805	-0.4007	-0.1138	-0.5889	-0.1154	-0.0925	 0.0242	-0.5558	 0.0006	-0.5334	-0.0499	-1.2658	-0.2679	
   328	-0.1291	-0.0140	 0.1143	 0.1810	-0.4975	-0.1562	-0.6490	-0.1197	-0.1437	 0.0252	-0.5903	-0.0042	-0.5590	-0.0494	-1.3348	-0.2776	
   329	-0.2348	-0.0618	 0.0720	 0.1874	-0.6121	-0.2094	-0.6835	-0.1245	-0.1793	 0.0038	-0.6248	-0.0091	-0.5846	-0.0489	-1.3871	-0.2932	
   330	-0.3573	-0.1037	 0.0542	 0.1767	-0.7513	-0.2454	-0.7081	-0.1073	-0.2483	-0.0059	-0.6593	-0.0139	-0.5935	-0.0542	-1.4216	-0.2980	
   331	-0.4719	-0.1568	 0.0196	 0.1719	-0.8659	-0.2985	-0.7081	-0.1073	-0.3095	-0.0268	-0.7017	-0.0075	-0.6103	-0.0483	-1.4383	-0.2921	
   332	-0.5854	-0.1933	-0.0316	 0.1729	-1.0061	-0.3511	-0.7326	-0.0901	-0.3875	-0.0419	-0.7451	-0.0177	-0.6270	-0.0424	-1.4551	-0.2862	
   333	-0.6733	-0.2304	-0.0828	 0.1740	-1.1118	-0.3989	-0.7404	-0.0789	-0.4320	-0.0687	-0.7885	-0.0279	-0.6437	-0.0365	-1.4718	-0.2803	
   334	-0.7434	-0.2567	-0.1262	 0.1638	-1.2075	-0.4247	-0.7226	-0.0681	-0.5010	-0.0784	-0.8397	-0.0268	-0.6437	-0.0365	-1.4885	-0.2744	
   335	-0.7868	-0.2669	-0.1519	 0.1644	-1.2520	-0.4515	-0.6703	-0.0526	-0.5533	-0.0940	-0.8753	-0.0483	-0.6526	-0.0419	-1.4718	-0.2803	
   336	-0.7534	-0.2787	-0.1440	 0.1531	-1.2442	-0.4628	-0.5913	-0.0209	-0.5544	-0.1106	-0.9009	-0.0477	-0.6437	-0.0365	-1.4373	-0.2755	
   337	-0.7100	-0.2685	-0.1351	 0.1584	-1.1930	-0.4639	-0.4867	 0.0103	-0.5455	-0.1052	-0.8920	-0.0424	-0.6181	-0.0371	-1.3682	-0.2658	
   338	-0.6487	-0.2476	-0.0928	 0.1520	-1.1328	-0.4596	-0.3821	 0.0414	-0.5277	-0.0945	-0.8664	-0.0429	-0.5836	-0.0322	-1.2814	-0.2454	
   339	-0.5708	-0.2325	-0.0583	 0.1568	-1.0638	-0.4499	-0.2696	 0.0613	-0.4932	-0.0897	-0.8486	-0.0322	-0.5490	-0.0274	-1.1868	-0.2363	
   340	-0.5007	-0.2062	-0.0238	 0.1617	-0.9859	-0.4349	-0.1995	 0.0876	-0.4587	-0.0848	-0.8052	-0.0220	-0.5145	-0.0226	-1.0832	-0.2218	
   341	-0.4228	-0.1912	 0.0018	 0.1611	-0.9247	-0.4140	-0.1305	 0.0972	-0.4409	-0.0741	-0.7540	-0.0230	-0.4967	-0.0118	-1.0053	-0.2067	
   342	-0.3694	-0.1590	 0.0196	 0.1719	-0.8634	-0.3930	-0.0871	 0.1074	-0.4231	-0.0633	-0.7362	-0.0123	-0.4711	-0.0124	-0.9362	-0.1971	
   343	-0.3082	-0.1380	 0.0620	 0.1654	-0.7933	-0.3667	-0.0358	 0.1064	-0.3975	-0.0639	-0.6849	-0.0134	-0.4455	-0.0129	-0.8839	-0.1815	
   344	-0.2392	-0.1284	 0.0709	 0.1708	-0.7399	-0.3345	-0.0180	 0.1171	-0.3886	-0.0585	-0.6504	-0.0085	-0.4199	-0.0134	-0.8405	-0.1713	
   345	-0.1947	-0.1015	 0.0876	 0.1649	-0.6698	-0.3082	-0.0013	 0.1112	-0.3718	-0.0644	-0.6248	-0.0091	-0.4110	-0.0081	-0.8060	-0.1665	
   346	-0.1512	-0.0913	 0.0876	 0.1649	-0.5997	-0.2819	-0.0102	 0.1058	-0.3629	-0.0591	-0.6070	 0.0017	-0.4110	-0.0081	-0.7882	-0.1557	
   347	-0.1157	-0.0698	 0.0954	 0.1536	-0.5374	-0.2443	-0.0280	 0.0951	-0.3540	-0.0537	-0.6070	 0.0017	-0.4110	-0.0081	-0.7882	-0.1557	
   348	-0.0879	-0.0371	 0.0698	 0.1541	-0.4506	-0.2239	-0.0458	 0.0844	-0.3362	-0.0429	-0.5892	 0.0124	-0.4277	-0.0022	-0.7882	-0.1557	
   349	-0.0612	-0.0210	 0.0687	 0.1375	-0.3794	-0.1809	-0.0714	 0.0849	-0.3184	-0.0322	-0.5725	 0.0065	-0.4277	-0.0022	-0.7804	-0.1670	
   350	-0.0256	 0.0005	 0.0598	 0.1321	-0.3093	-0.1546	-0.0803	 0.0795	-0.3006	-0.0215	-0.5803	 0.0178	-0.4277	-0.0022	-0.7804	-0.1670	
   351	-0.0067	 0.0279	 0.0431	 0.1380	-0.2559	-0.1224	-0.0803	 0.0795	-0.2661	-0.0166	-0.5714	 0.0231	-0.4277	-0.0022	-0.7715	-0.1616	
   352	 0.0278	 0.0327	 0.0342	 0.1327	-0.2203	-0.1009	-0.0892	 0.0741	-0.2483	-0.0059	-0.5625	 0.0285	-0.4277	-0.0022	-0.7626	-0.1563	
   353	 0.0289	 0.0494	 0.0253	 0.1273	-0.1847	-0.0795	-0.0892	 0.0741	-0.2216	 0.0102	-0.5369	 0.0280	-0.4110	-0.0081	-0.7370	-0.1568	
   354	 0.0378	 0.0547	 0.0086	 0.1332	-0.1669	-0.0687	-0.0981	 0.0688	-0.1871	 0.0150	-0.5280	 0.0333	-0.4188	 0.0032	-0.7359	-0.1402	
   355	 0.0211	 0.0606	-0.0092	 0.1225	-0.1581	-0.0633	-0.1237	 0.0693	-0.1772	 0.0371	-0.5358	 0.0446	-0.4188	 0.0032	-0.7103	-0.1407	
   356	 0.0122	 0.0553	-0.0270	 0.1117	-0.1659	-0.0521	-0.1493	 0.0699	-0.1505	 0.0532	-0.5191	 0.0387	-0.4021	-0.0027	-0.6836	-0.1246	
   357	-0.0224	 0.0504	-0.0537	 0.0956	-0.1748	-0.0574	-0.1750	 0.0704	-0.0981	 0.0687	-0.5102	 0.0441	-0.4099	 0.0086	-0.6569	-0.1085	
   358	-0.0658	 0.0402	-0.0971	 0.0854	-0.1837	-0.0628	-0.2095	 0.0656	-0.0547	 0.0789	-0.5269	 0.0500	-0.4188	 0.0032	-0.6302	-0.0924	
   359	-0.1092	 0.0300	-0.1405	 0.0752	-0.2093	-0.0623	-0.2607	 0.0666	-0.0270	 0.1117	-0.5180	 0.0554	-0.4277	-0.0022	-0.5790	-0.0935	
   360	-0.1437	 0.0252	-0.1761	 0.0537	-0.2438	-0.0671	-0.3041	 0.0564	 0.0254	 0.1273	-0.5180	 0.0554	-0.4533	-0.0016	-0.5612	-0.0827	
   361	-0.1871	 0.0150	-0.2452	 0.0441	-0.2616	-0.0778	-0.3564	 0.0409	 0.0442	 0.1546	-0.5259	 0.0666	-0.4711	-0.0124	-0.5523	-0.0773	
   362	-0.2127	 0.0155	-0.3053	 0.0398	-0.2872	-0.0773	-0.4255	 0.0312	 0.0709	 0.1708	-0.5170	 0.0720	-0.4889	-0.0231	-0.5523	-0.0773	
   363	-0.2383	 0.0161	-0.3576	 0.0242	-0.3295	-0.0709	-0.4778	 0.0156	 0.0887	 0.1815	-0.5337	 0.0779	-0.5234	-0.0279	-0.5690	-0.0714	
   364	-0.2640	 0.0166	-0.4177	 0.0199	-0.3473	-0.0816	-0.5390	-0.0053	 0.1054	 0.1756	-0.5337	 0.0779	-0.5490	-0.0274	-0.5868	-0.0822	
   365	-0.3063	 0.0231	-0.4700	 0.0044	-0.3730	-0.0811	-0.5913	-0.0209	 0.0887	 0.1815	-0.5593	 0.0784	-0.5579	-0.0328	-0.6124	-0.0816	
   366	-0.3408	 0.0182	-0.5302	 0.0001	-0.3986	-0.0805	-0.6525	-0.0418	 0.0631	 0.1820	-0.5849	 0.0790	-0.5836	-0.0322	-0.6547	-0.0752	
   367	-0.3753	 0.0134	-0.5569	-0.0161	-0.4242	-0.0800	-0.6959	-0.0520	 0.0453	 0.1713	-0.6194	 0.0741	-0.5925	-0.0376	-0.6725	-0.0859	
   368	-0.4098	 0.0086	-0.6081	-0.0150	-0.4665	-0.0735	-0.7482	-0.0676	 0.0108	 0.1665	-0.6539	 0.0693	-0.6092	-0.0317	-0.7071	-0.0908	
   369	-0.4444	 0.0037	-0.6426	-0.0198	-0.4843	-0.0843	-0.7916	-0.0778	-0.0148	 0.1670	-0.6639	 0.0473	-0.6181	-0.0371	-0.7416	-0.0956	
   370	-0.4867	 0.0102	-0.6860	-0.0300	-0.5267	-0.0778	-0.8440	-0.0934	-0.0237	 0.1616	-0.7151	 0.0484	-0.6437	-0.0365	-0.7761	-0.1004	
   371	-0.4956	 0.0048	-0.7116	-0.0295	-0.5267	-0.0778	-0.8696	-0.0928	-0.0148	 0.1670	-0.7329	 0.0376	-0.6526	-0.0419	-0.8184	-0.0940	
   372	-0.4700	 0.0043	-0.7205	-0.0348	-0.5089	-0.0671	-0.8440	-0.0934	 0.0119	 0.1831	-0.7586	 0.0382	-0.6693	-0.0360	-0.8273	-0.0994	
   373	-0.4266	 0.0145	-0.7373	-0.0289	-0.4487	-0.0628	-0.8005	-0.0832	 0.0642	 0.1987	-0.7497	 0.0435	-0.6693	-0.0360	-0.8106	-0.1053	
   374	-0.3654	 0.0354	-0.7116	-0.0295	-0.3708	-0.0478	-0.7226	-0.0681	 0.1254	 0.2196	-0.7319	 0.0543	-0.6437	-0.0365	-0.7672	-0.0951	
   375	-0.2963	 0.0451	-0.6860	-0.0300	-0.2840	-0.0274	-0.6358	-0.0477	 0.1955	 0.2459	-0.6884	 0.0645	-0.6092	-0.0317	-0.7149	-0.0795	
   376	-0.2440	 0.0607	-0.6604	-0.0305	-0.2149	-0.0177	-0.5579	-0.0327	 0.2656	 0.2722	-0.6283	 0.0688	-0.5747	-0.0269	-0.6380	-0.0811	
   377	-0.2006	 0.0709	-0.6348	-0.0311	-0.1459	-0.0080	-0.5055	-0.0171	 0.3268	 0.2932	-0.5938	 0.0736	-0.5401	-0.0220	-0.5690	-0.0714	
   378	-0.1661	 0.0757	-0.6259	-0.0257	-0.1192	 0.0081	-0.4454	-0.0128	 0.3791	 0.3087	-0.5504	 0.0838	-0.4889	-0.0231	-0.5167	-0.0559	
   379	-0.1316	 0.0805	-0.6092	-0.0316	-0.0847	 0.0129	-0.4109	-0.0080	 0.4136	 0.3136	-0.5326	 0.0945	-0.4711	-0.0124	-0.4733	-0.0457	
   380	-0.1227	 0.0859	-0.5925	-0.0375	-0.0502	 0.0177	-0.4020	-0.0026	 0.4314	 0.3243	-0.4903	 0.0881	-0.4366	-0.0075	-0.4053	-0.0526	
   381	-0.1138	 0.0913	-0.5925	-0.0375	-0.0246	 0.0172	-0.3764	-0.0032	 0.4660	 0.3291	-0.4557	 0.0929	-0.4021	-0.0027	-0.3619	-0.0424	
   382	-0.1138	 0.0913	-0.5925	-0.0375	-0.0157	 0.0226	-0.3764	-0.0032	 0.4749	 0.3345	-0.4468	 0.0983	-0.3843	 0.0080	-0.3441	-0.0317	
   383	-0.1227	 0.0859	-0.6014	-0.0429	-0.0324	 0.0285	-0.3853	-0.0085	 0.4749	 0.3345	-0.4301	 0.0924	-0.3587	 0.0075	-0.3018	-0.0382	
   384	-0.1483	 0.0864	-0.6270	-0.0424	-0.0413	 0.0231	-0.4198	-0.0134	 0.4749	 0.3345	-0.4468	 0.0983	-0.3420	 0.0016	-0.2929	-0.0328	
   385	-0.1739	 0.0870	-0.6526	-0.0418	-0.0335	 0.0118	-0.4376	-0.0241	 0.4660	 0.3291	-0.4468	 0.0983	-0.3498	 0.0129	-0.2840	-0.0274	
   386	-0.1917	 0.0762	-0.6615	-0.0472	-0.0424	 0.0065	-0.4721	-0.0289	 0.4492	 0.3351	-0.4468	 0.0983	-0.3409	 0.0182	-0.2918	-0.0161	
   387	-0.2006	 0.0709	-0.6704	-0.0526	-0.0591	 0.0124	-0.4888	-0.0230	 0.4236	 0.3356	-0.4479	 0.0817	-0.3409	 0.0182	-0.2751	-0.0220	
   388	-0.2173	 0.0768	-0.6793	-0.0579	-0.0591	 0.0124	-0.4977	-0.0284	 0.4058	 0.3249	-0.4735	 0.0822	-0.3409	 0.0182	-0.2751	-0.0220	
   389	-0.2095	 0.0655	-0.6960	-0.0520	-0.0669	 0.0236	-0.5144	-0.0225	 0.3802	 0.3254	-0.4903	 0.0881	-0.3487	 0.0295	-0.2662	-0.0167	
   390	-0.2262	 0.0714	-0.6882	-0.0633	-0.0669	 0.0236	-0.5233	-0.0279	 0.3624	 0.3146	-0.4992	 0.0827	-0.3398	 0.0349	-0.2662	-0.0167	
   391	-0.2351	 0.0660	-0.7049	-0.0574	-0.0836	 0.0295	-0.5322	-0.0332	 0.3357	 0.2985	-0.5415	 0.0892	-0.3398	 0.0349	-0.2662	-0.0167	
   392	-0.2607	 0.0666	-0.6971	-0.0687	-0.0758	 0.0183	-0.5579	-0.0327	 0.3012	 0.2937	-0.5337	 0.0779	-0.3398	 0.0349	-0.2740	-0.0054	
   393	-0.2618	 0.0499	-0.7060	-0.0740	-0.0925	 0.0242	-0.5746	-0.0268	 0.2834	 0.2830	-0.5515	 0.0672	-0.3398	 0.0349	-0.2740	-0.0054	
   394	-0.3041	 0.0564	-0.7394	-0.0622	-0.1014	 0.0188	-0.6002	-0.0262	 0.2567	 0.2669	-0.5771	 0.0677	-0.3398	 0.0349	-0.2907	 0.0005	
   395	-0.3219	 0.0456	-0.7483	-0.0676	-0.1349	 0.0306	-0.6091	-0.0316	 0.2222	 0.2620	-0.6116	 0.0629	-0.3565	 0.0408	-0.2907	 0.0005	
   396	-0.3476	 0.0462	-0.7739	-0.0671	-0.1605	 0.0312	-0.6347	-0.0311	 0.2133	 0.2567	-0.6294	 0.0521	-0.3654	 0.0354	-0.2740	-0.0054	
   397	-0.3821	 0.0413	-0.7828	-0.0724	-0.1694	 0.0258	-0.6436	-0.0365	 0.1955	 0.2459	-0.6472	 0.0414	-0.3821	 0.0413	-0.2818	 0.0059	
   398	-0.3999	 0.0306	-0.8173	-0.0773	-0.2039	 0.0210	-0.6781	-0.0413	 0.1699	 0.2465	-0.6817	 0.0366	-0.3910	 0.0360	-0.2907	 0.0005	
   399	-0.4255	 0.0311	-0.8430	-0.0767	-0.2295	 0.0215	-0.7126	-0.0461	 0.1521	 0.2357	-0.7162	 0.0317	-0.4167	 0.0365	-0.3242	 0.0123	
   400	-0.4600	 0.0263	-0.8775	-0.0816	-0.2473	 0.0108	-0.7639	-0.0450	 0.1265	 0.2363	-0.7418	 0.0323	-0.4255	 0.0311	-0.3419	 0.0016	
   401	-0.4945	 0.0215	-0.9120	-0.0864	-0.2818	 0.0059	-0.8073	-0.0552	 0.1097	 0.2422	-0.7596	 0.0215	-0.4512	 0.0317	-0.3676	 0.0021	
   402	-0.5290	 0.0166	-0.9465	-0.0912	-0.3331	 0.0070	-0.8507	-0.0654	 0.1009	 0.2368	-0.7853	 0.0221	-0.4768	 0.0322	-0.4021	-0.0027	
   403	-0.5635	 0.0118	-0.9732	-0.1073	-0.3676	 0.0022	-0.8941	-0.0756	 0.0585	 0.2432	-0.8198	 0.0172	-0.4857	 0.0268	-0.4199	-0.0134	
   404	-0.5981	 0.0070	-1.0077	-0.1122	-0.3854	-0.0086	-0.9453	-0.0746	 0.0407	 0.2325	-0.8543	 0.0124	-0.5113	 0.0274	-0.4455	-0.0129	
   405	-0.6326	 0.0021	-1.0422	-0.1170	-0.4199	-0.0134	-0.9799	-0.0794	 0.0062	 0.2277	-0.8966	 0.0188	-0.5369	 0.0279	-0.4711	-0.0124	
   406	-0.6504	-0.0086	-1.0767	-0.1218	-0.4544	-0.0182	-1.0066	-0.0955	-0.0450	 0.2287	-0.9233	 0.0027	-0.5625	 0.0285	-0.4889	-0.0231	
   407	-0.6927	-0.0022	-1.0945	-0.1326	-0.4967	-0.0118	-1.0411	-0.1003	-0.0806	 0.2073	-0.9578	-0.0021	-0.5803	 0.0177	-0.5312	-0.0167	
   408	-0.7016	-0.0075	-1.1291	-0.1374	-0.5056	-0.0172	-1.0667	-0.0998	-0.1240	 0.1971	-0.9834	-0.0016	-0.5970	 0.0236	-0.5490	-0.0274	
   409	-0.6927	-0.0022	-1.1458	-0.1315	-0.4889	-0.0231	-1.0489	-0.0891	-0.1763	 0.1815	-1.0012	-0.0123	-0.6059	 0.0183	-0.5747	-0.0269	
   410	-0.6571	 0.0193	-1.1202	-0.1320	-0.4533	-0.0016	-0.9966	-0.0735	-0.2109	 0.1767	-1.0101	-0.0177	-0.6059	 0.0183	-0.5747	-0.0269	
   411	-0.5714	 0.0231	-1.1024	-0.1213	-0.3843	 0.0081	-0.9019	-0.0644	-0.2030	 0.1654	-1.0012	-0.0123	-0.5803	 0.0177	-0.5490	-0.0274	
   412	-0.5102	 0.0440	-1.0511	-0.1224	-0.3064	 0.0231	-0.8073	-0.0552	-0.1685	 0.1702	-0.9667	-0.0075	-0.5547	 0.0172	-0.5145	-0.0226	
   413	-0.4411	 0.0537	-1.0166	-0.1175	-0.2373	 0.0328	-0.7461	-0.0343	-0.1084	 0.1745	-0.9233	 0.0027	-0.5202	 0.0220	-0.4711	-0.0124	
   414	-0.3977	 0.0639	-0.9910	-0.1181	-0.1861	 0.0317	-0.6859	-0.0300	-0.0472	 0.1955	-0.8632	 0.0070	-0.4857	 0.0268	-0.4199	-0.0134	
   415	-0.3632	 0.0687	-0.9654	-0.1186	-0.1594	 0.0478	-0.6514	-0.0252	 0.0140	 0.2164	-0.8365	 0.0231	-0.4601	 0.0263	-0.3686	-0.0145	
   416	-0.3376	 0.0682	-0.9732	-0.1073	-0.1171	 0.0414	-0.6425	-0.0198	 0.0585	 0.2432	-0.7853	 0.0221	-0.4512	 0.0317	-0.3430	-0.0151	
   417	-0.3287	 0.0735	-0.9565	-0.1132	-0.1082	 0.0467	-0.6258	-0.0257	 0.1030	 0.2701	-0.7596	 0.0215	-0.4344	 0.0258	-0.3341	-0.0097	
   418	-0.3287	 0.0735	-0.9476	-0.1079	-0.0993	 0.0521	-0.6258	-0.0257	 0.1464	 0.2803	-0.7507	 0.0269	-0.4177	 0.0199	-0.3085	-0.0102	
   419	-0.3287	 0.0735	-0.9387	-0.1025	-0.0904	 0.0575	-0.6169	-0.0203	 0.1720	 0.2798	-0.7418	 0.0323	-0.4255	 0.0311	-0.2996	-0.0049	
   420	-0.3376	 0.0682	-0.9298	-0.0971	-0.0904	 0.0575	-0.6002	-0.0262	 0.1809	 0.2851	-0.7340	 0.0210	-0.4255	 0.0311	-0.2907	 0.0005	
   421	-0.3465	 0.0628	-0.9042	-0.0977	-0.0993	 0.0521	-0.6169	-0.0203	 0.1977	 0.2792	-0.7340	 0.0210	-0.4177	 0.0199	-0.2818	 0.0059	
   422	-0.3465	 0.0628	-0.8786	-0.0982	-0.1160	 0.0580	-0.6258	-0.0257	 0.2322	 0.2840	-0.7262	 0.0097	-0.4344	 0.0258	-0.2818	 0.0059	
   423	-0.3465	 0.0628	-0.8697	-0.0928	-0.1249	 0.0526	-0.6425	-0.0198	 0.2678	 0.3055	-0.7340	 0.0210	-0.4433	 0.0204	-0.2896	 0.0172	
   424	-0.3376	 0.0682	-0.8697	-0.0928	-0.1249	 0.0526	-0.6603	-0.0305	 0.3123	 0.3324	-0.7251	 0.0264	-0.4355	 0.0091	-0.2818	 0.0059	
   425	-0.3209	 0.0623	-0.8697	-0.0928	-0.1171	 0.0414	-0.6859	-0.0300	 0.3567	 0.3592	-0.6995	 0.0258	-0.4522	 0.0150	-0.2818	 0.0059	
   426	-0.3287	 0.0735	-0.8697	-0.0928	-0.1171	 0.0414	-0.7037	-0.0407	 0.4002	 0.3694	-0.6817	 0.0366	-0.4444	 0.0038	-0.2818	 0.0059	
   427	-0.3198	 0.0789	-0.8786	-0.0982	-0.1171	 0.0414	-0.7126	-0.0461	 0.4101	 0.3914	-0.6639	 0.0473	-0.4522	 0.0150	-0.2907	 0.0005	
   428	-0.3198	 0.0789	-0.8953	-0.0923	-0.1249	 0.0526	-0.7215	-0.0515	 0.4101	 0.3914	-0.6550	 0.0527	-0.4522	 0.0150	-0.2907	 0.0005	
   429	-0.3198	 0.0789	-0.9042	-0.0977	-0.1249	 0.0526	-0.7472	-0.0509	 0.3845	 0.3920	-0.6461	 0.0580	-0.4433	 0.0204	-0.2996	-0.0049	
   430	-0.3198	 0.0789	-0.9209	-0.0918	-0.1249	 0.0526	-0.7561	-0.0563	 0.3667	 0.3812	-0.6539	 0.0693	-0.4344	 0.0258	-0.3085	-0.0102	
   431	-0.3365	 0.0848	-0.9131	-0.1030	-0.1416	 0.0585	-0.7817	-0.0558	 0.3311	 0.3598	-0.6539	 0.0693	-0.4344	 0.0258	-0.3252	-0.0043	
   432	-0.3454	 0.0794	-0.9387	-0.1025	-0.1505	 0.0532	-0.8162	-0.0606	 0.2621	 0.3501	-0.6796	 0.0699	-0.4423	 0.0370	-0.3430	-0.0151	
   433	-0.3621	 0.0854	-0.9643	-0.1020	-0.1761	 0.0537	-0.8429	-0.0767	 0.2265	 0.3286	-0.7052	 0.0704	-0.4423	 0.0370	-0.3608	-0.0258	
   434	-0.3799	 0.0746	-0.9988	-0.1068	-0.1939	 0.0430	-0.8952	-0.0923	 0.1664	 0.3243	-0.7230	 0.0597	-0.4423	 0.0370	-0.3953	-0.0306	
   435	-0.4223	 0.0811	-1.0166	-0.1175	-0.2284	 0.0381	-0.9553	-0.0966	 0.1308	 0.3028	-0.7575	 0.0548	-0.4512	 0.0317	-0.4388	-0.0408	
   436	-0.4646	 0.0875	-1.0511	-0.1224	-0.2708	 0.0446	-1.0076	-0.1122	 0.0874	 0.2926	-0.8009	 0.0446	-0.4846	 0.0435	-0.4989	-0.0451	
   437	-0.4991	 0.0827	-1.0856	-0.1272	-0.2886	 0.0338	-1.0599	-0.1277	 0.0440	 0.2824	-0.8354	 0.0398	-0.4935	 0.0381	-0.5423	-0.0553	
   438	-0.5336	 0.0778	-1.1202	-0.1320	-0.3398	 0.0349	-1.1123	-0.1433	 0.0094	 0.2776	-0.8866	 0.0409	-0.5024	 0.0327	-0.5857	-0.0655	
   439	-0.5603	 0.0617	-1.1714	-0.1309	-0.3576	 0.0242	-1.1557	-0.1535	-0.0173	 0.2615	-0.9222	 0.0194	-0.5280	 0.0333	-0.6291	-0.0757	
   440	-0.6115	 0.0628	-1.2059	-0.1358	-0.4010	 0.0140	-1.2247	-0.1632	-0.0518	 0.2567	-0.9735	 0.0205	-0.5536	 0.0338	-0.6725	-0.0859	
   441	-0.6461	 0.0580	-1.2404	-0.1406	-0.4355	 0.0091	-1.2681	-0.1734	-0.0863	 0.2518	-1.0091	-0.0010	-0.5714	 0.0231	-0.7159	-0.0961	
   442	-0.6895	 0.0478	-1.2660	-0.1401	-0.4700	 0.0043	-1.3282	-0.1777	-0.1119	 0.2524	-1.0525	-0.0112	-0.6059	 0.0183	-0.7761	-0.1004	
   443	-0.7329	 0.0376	-1.3006	-0.1449	-0.5046	-0.0005	-1.3628	-0.1825	-0.1297	 0.2416	-1.1126	-0.0155	-0.6405	 0.0134	-0.8195	-0.1106	
   444	-0.7585	 0.0381	-1.3262	-0.1444	-0.5302	 0.0000	-1.3795	-0.1766	-0.1386	 0.2363	-1.1393	-0.0316	-0.6750	 0.0086	-0.8707	-0.1096	
   445	-0.7418	 0.0322	-1.3262	-0.1444	-0.5124	 0.0108	-1.3617	-0.1658	-0.1553	 0.2422	-1.1738	-0.0365	-0.7006	 0.0091	-0.8796	-0.1149	
   446	-0.6817	 0.0365	-1.3006	-0.1449	-0.4601	 0.0263	-1.2749	-0.1454	-0.1386	 0.2363	-1.1905	-0.0305	-0.6928	-0.0021	-0.8796	-0.1149	
   447	-0.6372	 0.0633	-1.2660	-0.1401	-0.3743	 0.0301	-1.1791	-0.1197	-0.1297	 0.2416	-1.1738	-0.0365	-0.7006	 0.0091	-0.8451	-0.1101	
   448	-0.5681	 0.0730	-1.2226	-0.1299	-0.3053	 0.0398	-1.0667	-0.0998	-0.1041	 0.2411	-1.1315	-0.0429	-0.6583	 0.0027	-0.8017	-0.0999	
   449	-0.5080	 0.0773	-1.1714	-0.1309	-0.2530	 0.0553	-0.9966	-0.0735	-0.1041	 0.2411	-1.1137	-0.0322	-0.6405	 0.0134	-0.7505	-0.1010	
   450	-0.4646	 0.0875	-1.1369	-0.1261	-0.1928	 0.0596	-0.9197	-0.0751	-0.1041	 0.2411	-1.0792	-0.0273	-0.6148	 0.0129	-0.7238	-0.0849	
   451	-0.4134	 0.0864	-1.1024	-0.1213	-0.1750	 0.0704	-0.8763	-0.0649	-0.1130	 0.2357	-1.0536	-0.0279	-0.5803	 0.0177	-0.6982	-0.0854	
   452	-0.3877	 0.0859	-1.0935	-0.1159	-0.1494	 0.0698	-0.8340	-0.0713	-0.1141	 0.2191	-1.0368	-0.0338	-0.5547	 0.0172	-0.6725	-0.0859	
   453	-0.3710	 0.0800	-1.0767	-0.1218	-0.1238	 0.0693	-0.8329	-0.0547	-0.1230	 0.2137	-1.0279	-0.0284	-0.5458	 0.0225	-0.6636	-0.0806	
   454	-0.3710	 0.0800	-1.0600	-0.1277	-0.1149	 0.0746	-0.8073	-0.0552	-0.1230	 0.2137	-1.0279	-0.0284	-0.5202	 0.0220	-0.6380	-0.0811	
   455	-0.3710	 0.0800	-1.0600	-0.1277	-0.1227	 0.0859	-0.7984	-0.0499	-0.1319	 0.2083	-1.0279	-0.0284	-0.5202	 0.0220	-0.6202	-0.0704	
   456	-0.3710	 0.0800	-1.0511	-0.1224	-0.1227	 0.0859	-0.7895	-0.0445	-0.1230	 0.2137	-1.0112	-0.0343	-0.5113	 0.0274	-0.5857	-0.0655	
   457	-0.3621	 0.0854	-1.0255	-0.1229	-0.1227	 0.0859	-0.7639	-0.0450	-0.1141	 0.2191	-1.0023	-0.0289	-0.5113	 0.0274	-0.5846	-0.0489	
   458	-0.3532	 0.0907	-1.0077	-0.1122	-0.1227	 0.0859	-0.7550	-0.0397	-0.1141	 0.2191	-0.9934	-0.0236	-0.5113	 0.0274	-0.5668	-0.0381	
   459	-0.3276	 0.0902	-0.9732	-0.1073	-0.1227	 0.0859	-0.7550	-0.0397	-0.0973	 0.2132	-0.9678	-0.0241	-0.5191	 0.0387	-0.5501	-0.0441	
   460	-0.3098	 0.1009	-0.9554	-0.0966	-0.1316	 0.0806	-0.7639	-0.0450	-0.1052	 0.2245	-0.9756	-0.0128	-0.5113	 0.0274	-0.5590	-0.0494	
   461	-0.3176	 0.1122	-0.9465	-0.0912	-0.1405	 0.0752	-0.8073	-0.0552	-0.1052	 0.2245	-0.9756	-0.0128	-0.5113	 0.0274	-0.5935	-0.0543	
   462	-0.3176	 0.1122	-0.9632	-0.0853	-0.1583	 0.0644	-0.8518	-0.0821	-0.1141	 0.2191	-0.9678	-0.0241	-0.5202	 0.0220	-0.6202	-0.0704	
   463	-0.3432	 0.1127	-0.9888	-0.0848	-0.1928	 0.0596	-0.9297	-0.0971	-0.1308	 0.2250	-0.9934	-0.0236	-0.5458	 0.0225	-0.6814	-0.0913	
   464	-0.3443	 0.0961	-1.0066	-0.0955	-0.2185	 0.0602	-0.9820	-0.1127	-0.1475	 0.2309	-1.0190	-0.0230	-0.5547	 0.0172	-0.7337	-0.1069	
   465	-0.3867	 0.1025	-1.0244	-0.1062	-0.2274	 0.0548	-1.0165	-0.1175	-0.1564	 0.2255	-1.0279	-0.0284	-0.5636	 0.0118	-0.7772	-0.1171	
   466	-0.3956	 0.0972	-1.0500	-0.1057	-0.2441	 0.0607	-1.0421	-0.1170	-0.1653	 0.2202	-1.0536	-0.0279	-0.5803	 0.0177	-0.8117	-0.1219	
   467	-0.4045	 0.0918	-1.0589	-0.1111	-0.2530	 0.0553	-1.0510	-0.1224	-0.1742	 0.2148	-1.0703	-0.0220	-0.5892	 0.0123	-0.8373	-0.1214	
   468	-0.4212	 0.0977	-1.0757	-0.1052	-0.2786	 0.0559	-1.0510	-0.1224	-0.1831	 0.2094	-1.0792	-0.0273	-0.6059	 0.0183	-0.8462	-0.1267	
   469	-0.4212	 0.0977	-1.0757	-0.1052	-0.2875	 0.0505	-1.0767	-0.1218	-0.1920	 0.2041	-1.0881	-0.0327	-0.6148	 0.0129	-0.8718	-0.1262	
   470	-0.4379	 0.1036	-1.0835	-0.0939	-0.3298	 0.0569	-1.0945	-0.1326	-0.2176	 0.2046	-1.0970	-0.0381	-0.6237	 0.0075	-0.9063	-0.1310	
   471	-0.4301	 0.0923	-1.0835	-0.0939	-0.3565	 0.0408	-1.1557	-0.1535	-0.2354	 0.1938	-1.1148	-0.0488	-0.6494	 0.0081	-0.9586	-0.1466	
   472	-0.4557	 0.0929	-1.0835	-0.0939	-0.3999	 0.0306	-1.2258	-0.1798	-0.2532	 0.1831	-1.1571	-0.0424	-0.6839	 0.0032	-1.0287	-0.1729	
   473	-0.4735	 0.0821	-1.1002	-0.0880	-0.4433	 0.0204	-1.3048	-0.2115	-0.2966	 0.1729	-1.1671	-0.0644	-0.7095	 0.0038	-1.1245	-0.1987	
   474	-0.5080	 0.0773	-1.1080	-0.0767	-0.4700	 0.0043	-1.3916	-0.2319	-0.3489	 0.1573	-1.2183	-0.0633	-0.7440	-0.0011	-1.2124	-0.2357	
   475	-0.5425	 0.0725	-1.1080	-0.0767	-0.5213	 0.0054	-1.4272	-0.2534	-0.4279	 0.1257	-1.2539	-0.0848	-0.7540	-0.0231	-1.3248	-0.2556	
   476	-0.5603	 0.0617	-1.0913	-0.0826	-0.5558	 0.0006	-1.4450	-0.2641	-0.5503	 0.0838	-1.3062	-0.1003	-0.7885	-0.0279	-1.4205	-0.2814	
   477	-0.5781	 0.0510	-1.0902	-0.0660	-0.5814	 0.0011	-1.4528	-0.2528	-0.6728	 0.0419	-1.3507	-0.1272	-0.8141	-0.0274	-1.4985	-0.2964	
   478	-0.5870	 0.0456	-1.0813	-0.0606	-0.5992	-0.0096	-1.4361	-0.2587	-0.8041	-0.0053	-1.4108	-0.1315	-0.8319	-0.0381	-1.5753	-0.2948	
   479	-0.6037	 0.0515	-1.0557	-0.0611	-0.6170	-0.0204	-1.4350	-0.2421	-0.9098	-0.0531	-1.4464	-0.1530	-0.8575	-0.0376	-1.6354	-0.2991	
   480	-0.5781	 0.0510	-1.0290	-0.0450	-0.6248	-0.0091	-1.3660	-0.2324	-0.9899	-0.1015	-1.4898	-0.1632	-0.8664	-0.0430	-1.6700	-0.3039	
   481	-0.5180	 0.0553	-0.9767	-0.0295	-0.5903	-0.0043	-1.2870	-0.2007	-1.0511	-0.1224	-1.5244	-0.1680	-0.8664	-0.0430	-1.6700	-0.3039	
   482	-0.4489	 0.0650	-0.8988	-0.0144	-0.5135	-0.0059	-1.1656	-0.1755	-1.0689	-0.1331	-1.5076	-0.1739	-0.8742	-0.0317	-1.6354	-0.2991	
   483	-0.3543	 0.0741	-0.8209	 0.0006	-0.4444	 0.0038	-1.0443	-0.1503	-1.0433	-0.1337	-1.4820	-0.1744	-0.8408	-0.0435	-1.5920	-0.2889	
   484	-0.2685	 0.0778	-0.7340	 0.0210	-0.3843	 0.0081	-0.9319	-0.1304	-0.9831	-0.1294	-1.4553	-0.1583	-0.8152	-0.0440	-1.5241	-0.2959	
   485	-0.1995	 0.0875	-0.6394	 0.0301	-0.3242	 0.0124	-0.8361	-0.1046	-0.9130	-0.1031	-1.3785	-0.1599	-0.7974	-0.0333	-1.4640	-0.2916	
   486	-0.1394	 0.0918	-0.5614	 0.0452	-0.2818	 0.0059	-0.7582	-0.0896	-0.8429	-0.0768	-1.3094	-0.1503	-0.7718	-0.0338	-1.4294	-0.2867	
   487	-0.0882	 0.0907	-0.4835	 0.0602	-0.2729	 0.0113	-0.6892	-0.0799	-0.7650	-0.0617	-1.2404	-0.1406	-0.7462	-0.0344	-1.3871	-0.2932	
   488	-0.0536	 0.0955	-0.4145	 0.0699	-0.2484	-0.0059	-0.6369	-0.0644	-0.6949	-0.0354	-1.1881	-0.1251	-0.7294	-0.0403	-1.3615	-0.2937	
   489	-0.0113	 0.0891	-0.3455	 0.0795	-0.2573	-0.0113	-0.5935	-0.0542	-0.6337	-0.0145	-1.1358	-0.1095	-0.7205	-0.0349	-1.3359	-0.2943	
   490	-0.0024	 0.0945	-0.3099	 0.1010	-0.2584	-0.0279	-0.5757	-0.0434	-0.5803	 0.0177	-1.0924	-0.0993	-0.7038	-0.0408	-1.3191	-0.3002	
   491	 0.0399	 0.0880	-0.2497	 0.1053	-0.2851	-0.0440	-0.5668	-0.0381	-0.5112	 0.0274	-1.0490	-0.0891	-0.6949	-0.0354	-1.3103	-0.2948	
   492	 0.0488	 0.0934	-0.2230	 0.1214	-0.3196	-0.0488	-0.5668	-0.0381	-0.4757	 0.0489	-1.0223	-0.0730	-0.6949	-0.0354	-1.3103	-0.2948	
   493	 0.0666	 0.1041	-0.1885	 0.1262	-0.3463	-0.0650	-0.5835	-0.0322	-0.4411	 0.0537	-0.9878	-0.0681	-0.6949	-0.0354	-1.3024	-0.3061	
   494	 0.0922	 0.1036	-0.1618	 0.1423	-0.3641	-0.0757	-0.5579	-0.0327	-0.4144	 0.0698	-0.9778	-0.0461	-0.6949	-0.0354	-1.3103	-0.2948	
   495	 0.1100	 0.1143	-0.1273	 0.1472	-0.3730	-0.0811	-0.5657	-0.0214	-0.4055	 0.0752	-0.9600	-0.0354	-0.6949	-0.0354	-1.2935	-0.3007	
   496	 0.1357	 0.1138	-0.0839	 0.1574	-0.3651	-0.0923	-0.5312	-0.0166	-0.3799	 0.0746	-0.9255	-0.0306	-0.6860	-0.0301	-1.2846	-0.2953	
   497	 0.1702	 0.1186	-0.0405	 0.1676	-0.3651	-0.0923	-0.5134	-0.0058	-0.3543	 0.0741	-0.9077	-0.0198	-0.6860	-0.0301	-1.2757	-0.2900	
   498	 0.1880	 0.1294	-0.0138	 0.1837	-0.3562	-0.0870	-0.4956	 0.0049	-0.3532	 0.0908	-0.8732	-0.0150	-0.6860	-0.0301	-1.2757	-0.2900	
   499	 0.2058	 0.1401	 0.0040	 0.1944	-0.3473	-0.0816	-0.4789	-0.0010	-0.3276	 0.0902	-0.8564	-0.0209	-0.6860	-0.0301	-1.2590	-0.2959	
   500	 0.2314	 0.1396	 0.0463	 0.1880	-0.3384	-0.0762	-0.4956	 0.0049	-0.3098	 0.1010	-0.8386	-0.0102	-0.6860	-0.0301	-1.2590	-0.2959	
   501	 0.2325	 0.1562	 0.0385	 0.1993	-0.3128	-0.0768	-0.5045	-0.0005	-0.2920	 0.1117	-0.8297	-0.0048	-0.6949	-0.0354	-1.2757	-0.2900	
   502	 0.2414	 0.1616	 0.0552	 0.1933	-0.2950	-0.0660	-0.5301	 0.0001	-0.2575	 0.1165	-0.8130	-0.0107	-0.6949	-0.0354	-1.2925	-0.2841	
   503	 0.2592	 0.1723	 0.0385	 0.1993	-0.2772	-0.0553	-0.5724	 0.0065	-0.2397	 0.1273	-0.8208	 0.0006	-0.7038	-0.0408	-1.3014	-0.2894	
   504	 0.2602	 0.1890	 0.0296	 0.1939	-0.2505	-0.0392	-0.5902	-0.0042	-0.2219	 0.1380	-0.8041	-0.0053	-0.7127	-0.0462	-1.3103	-0.2948	
   505	 0.2691	 0.1943	 0.0207	 0.1885	-0.2406	-0.0172	-0.6158	-0.0037	-0.2208	 0.1547	-0.8208	 0.0006	-0.7294	-0.0403	-1.3359	-0.2943	
   506	 0.2524	 0.2002	-0.0227	 0.1783	-0.2061	-0.0123	-0.6504	-0.0085	-0.1941	 0.1708	-0.8287	 0.0119	-0.7383	-0.0456	-1.3437	-0.2830	
   507	 0.2446	 0.2115	-0.0494	 0.1622	-0.2050	 0.0043	-0.6849	-0.0134	-0.1674	 0.1869	-0.8287	 0.0119	-0.7551	-0.0397	-1.3437	-0.2830	
   508	 0.2357	 0.2062	-0.0839	 0.1574	-0.1961	 0.0097	-0.7272	-0.0069	-0.1408	 0.2030	-0.8287	 0.0119	-0.7640	-0.0451	-1.3437	-0.2830	
   509	 0.1934	 0.2126	-0.1195	 0.1359	-0.2039	 0.0210	-0.7450	-0.0177	-0.1230	 0.2137	-0.8376	 0.0065	-0.7896	-0.0446	-1.3604	-0.2771	
   510	 0.1756	 0.2019	-0.1629	 0.1257	-0.2206	 0.0269	-0.7795	-0.0225	-0.1130	 0.2357	-0.8543	 0.0124	-0.7896	-0.0446	-1.3604	-0.2771	
   511	 0.1410	 0.1970	-0.2230	 0.1214	-0.2373	 0.0328	-0.8051	-0.0219	-0.1041	 0.2411	-0.8877	 0.0242	-0.8063	-0.0387	-1.3604	-0.2771	
   512	 0.1065	 0.1922	-0.2665	 0.1112	-0.2462	 0.0274	-0.8396	-0.0268	-0.0874	 0.2352	-0.8888	 0.0076	-0.8152	-0.0440	-1.3682	-0.2658	
   513	 0.0642	 0.1986	-0.3099	 0.1010	-0.2718	 0.0279	-0.8653	-0.0262	-0.1041	 0.2411	-0.9311	 0.0140	-0.8319	-0.0381	-1.3849	-0.2599	
   514	 0.0464	 0.1879	-0.3533	 0.0908	-0.2718	 0.0279	-0.8909	-0.0257	-0.1219	 0.2304	-0.9400	 0.0086	-0.8408	-0.0435	-1.3938	-0.2653	
   515	 0.0464	 0.1879	-0.3878	 0.0860	-0.2462	 0.0274	-0.8653	-0.0262	-0.1475	 0.2309	-0.9745	 0.0038	-0.8575	-0.0376	-1.3938	-0.2653	
   516	 0.0809	 0.1927	-0.3878	 0.0860	-0.1939	 0.0430	-0.7873	-0.0112	-0.1564	 0.2255	-0.9745	 0.0038	-0.8575	-0.0376	-1.3849	-0.2599	
   517	 0.1165	 0.2142	-0.3544	 0.0742	-0.1160	 0.0580	-0.6749	 0.0087	-0.1397	 0.2196	-0.9400	 0.0086	-0.8319	-0.0381	-1.3415	-0.2497	
   518	 0.1855	 0.2239	-0.3109	 0.0844	-0.0381	 0.0730	-0.5535	 0.0339	-0.1308	 0.2250	-0.9144	 0.0081	-0.7974	-0.0333	-1.2814	-0.2454	
   519	 0.2624	 0.2223	-0.2597	 0.0833	 0.0399	 0.0881	-0.4411	 0.0538	-0.1052	 0.2245	-0.8543	 0.0124	-0.7462	-0.0344	-1.2202	-0.2245	
   520	 0.3058	 0.2325	-0.2163	 0.0935	 0.1089	 0.0977	-0.3465	 0.0629	-0.0795	 0.2239	-0.7942	 0.0167	-0.7195	-0.0183	-1.1423	-0.2094	
   521	 0.3492	 0.2427	-0.1651	 0.0924	 0.1690	 0.1020	-0.2774	 0.0725	-0.0539	 0.2234	-0.7764	 0.0274	-0.6682	-0.0193	-1.0821	-0.2051	
   522	 0.4004	 0.2416	-0.1306	 0.0972	 0.2124	 0.1122	-0.2262	 0.0715	-0.0283	 0.2228	-0.7340	 0.0210	-0.6504	-0.0086	-1.0643	-0.1944	
   523	 0.4271	 0.2577	-0.0871	 0.1074	 0.2470	 0.1171	-0.2006	 0.0709	-0.0116	 0.2169	-0.7173	 0.0151	-0.6081	-0.0150	-1.0309	-0.2062	
   524	 0.4695	 0.2513	-0.0526	 0.1123	 0.2648	 0.1278	-0.1760	 0.0537	 0.0051	 0.2110	-0.6917	 0.0145	-0.5825	-0.0156	-1.0309	-0.2062	
   525	 0.4784	 0.2566	-0.0348	 0.1230	 0.2904	 0.1273	-0.1593	 0.0478	 0.0218	 0.2051	-0.6750	 0.0086	-0.5647	-0.0048	-1.0476	-0.2003	
   526	 0.4951	 0.2507	-0.0092	 0.1225	 0.2904	 0.1273	-0.1515	 0.0366	 0.0040	 0.1944	-0.6839	 0.0033	-0.5391	-0.0054	-1.0487	-0.2169	
   527	 0.4862	 0.2453	 0.0086	 0.1332	 0.2904	 0.1273	-0.1515	 0.0366	-0.0137	 0.1836	-0.6760	-0.0080	-0.5302	-0.0000	-1.0576	-0.2223	
   528	 0.4695	 0.2513	 0.0420	 0.1214	 0.2737	 0.1332	-0.1515	 0.0366	-0.0404	 0.1675	-0.6760	-0.0080	-0.5124	 0.0107	-1.0743	-0.2164	
   529	 0.4606	 0.2459	 0.0342	 0.1327	 0.2737	 0.1332	-0.1337	 0.0473	-0.0671	 0.1514	-0.7017	-0.0075	-0.5035	 0.0161	-1.0743	-0.2164	
   530	 0.4773	 0.2400	 0.0598	 0.1321	 0.2904	 0.1273	-0.1159	 0.0580	-0.0849	 0.1407	-0.7017	-0.0075	-0.4946	 0.0215	-1.0654	-0.2110	
   531	 0.4773	 0.2400	 0.0687	 0.1375	 0.2904	 0.1273	-0.0981	 0.0688	-0.0928	 0.1520	-0.6760	-0.0080	-0.4857	 0.0268	-1.0476	-0.2003	
   532	 0.4862	 0.2453	 0.0854	 0.1316	 0.2904	 0.1273	-0.0803	 0.0795	-0.0750	 0.1627	-0.6671	-0.0026	-0.4768	 0.0322	-1.0131	-0.1955	
   533	 0.5029	 0.2394	 0.1022	 0.1257	 0.2904	 0.1273	-0.0792	 0.0962	-0.0394	 0.1842	-0.6159	-0.0037	-0.4512	 0.0317	-0.9953	-0.1847	
   534	 0.5029	 0.2394	 0.1189	 0.1198	 0.2815	 0.1219	-0.0792	 0.0962	 0.0040	 0.1944	-0.5892	 0.0124	-0.4590	 0.0430	-0.9775	-0.1740	
   535	 0.4862	 0.2453	 0.1022	 0.1257	 0.2637	 0.1112	-0.1049	 0.0967	 0.0564	 0.2100	-0.5625	 0.0285	-0.4423	 0.0370	-0.9430	-0.1692	
   536	 0.4773	 0.2400	 0.0933	 0.1203	 0.2381	 0.1117	-0.1305	 0.0972	 0.0752	 0.2373	-0.5447	 0.0392	-0.4590	 0.0430	-0.9341	-0.1638	
   537	 0.4684	 0.2346	 0.0844	 0.1150	 0.2203	 0.1010	-0.1739	 0.0870	 0.1186	 0.2475	-0.5180	 0.0554	-0.4679	 0.0376	-0.9341	-0.1638	
   538	 0.4428	 0.2351	 0.0755	 0.1096	 0.2025	 0.0902	-0.2251	 0.0881	 0.1453	 0.2636	-0.5170	 0.0720	-0.4768	 0.0322	-0.9430	-0.1692	
   539	 0.4172	 0.2357	 0.0498	 0.1101	 0.1601	 0.0967	-0.2607	 0.0666	 0.1553	 0.2857	-0.4913	 0.0715	-0.5024	 0.0327	-0.9430	-0.1692	
   540	 0.3994	 0.2249	 0.0320	 0.0994	 0.1423	 0.0859	-0.3119	 0.0677	 0.1642	 0.2910	-0.4824	 0.0768	-0.5113	 0.0274	-0.9686	-0.1686	
   541	 0.3649	 0.2201	 0.0064	 0.0999	 0.1000	 0.0924	-0.3386	 0.0516	 0.1464	 0.2803	-0.4824	 0.0768	-0.5202	 0.0220	-0.9942	-0.1681	
   542	 0.3471	 0.2094	 0.0064	 0.0999	 0.0744	 0.0929	-0.3564	 0.0409	 0.0930	 0.2481	-0.5170	 0.0720	-0.5536	 0.0338	-1.0120	-0.1788	
   543	 0.3047	 0.2158	-0.0014	 0.1112	 0.0566	 0.0822	-0.3831	 0.0248	 0.0140	 0.2164	-0.5515	 0.0672	-0.5625	 0.0285	-1.0633	-0.1777	
   544	 0.2958	 0.2104	-0.0092	 0.1225	 0.0310	 0.0827	-0.4176	 0.0199	-0.0728	 0.1960	-0.5871	 0.0457	-0.5714	 0.0231	-1.1067	-0.1879	
   545	 0.2780	 0.1997	-0.0092	 0.1225	 0.0054	 0.0832	-0.4611	 0.0097	-0.1440	 0.1530	-0.6472	 0.0414	-0.5970	 0.0236	-1.1668	-0.1922	
   546	 0.2357	 0.2062	-0.0092	 0.1225	-0.0292	 0.0784	-0.4878	-0.0064	-0.2308	 0.1326	-0.6750	 0.0086	-0.6059	 0.0183	-1.2358	-0.2019	
   547	 0.2179	 0.1954	-0.0259	 0.1284	-0.0548	 0.0789	-0.5312	-0.0166	-0.2753	 0.1058	-0.7351	 0.0043	-0.6316	 0.0188	-1.2881	-0.2175	
   548	 0.1923	 0.1960	-0.0515	 0.1289	-0.0804	 0.0795	-0.5490	-0.0273	-0.3009	 0.1063	-0.7618	-0.0118	-0.6405	 0.0134	-1.3483	-0.2218	
   549	 0.1667	 0.1965	-0.0604	 0.1235	-0.1060	 0.0800	-0.5746	-0.0268	-0.2920	 0.1117	-0.7707	-0.0171	-0.6405	 0.0134	-1.3750	-0.2379	
   550	 0.1834	 0.1906	-0.0604	 0.1235	-0.1060	 0.0800	-0.5735	-0.0101	-0.2742	 0.1224	-0.7874	-0.0112	-0.6572	 0.0193	-1.3839	-0.2432	
   551	 0.2012	 0.2013	-0.0683	 0.1348	-0.0715	 0.0849	-0.5301	 0.0001	-0.2731	 0.1391	-0.7874	-0.0112	-0.6483	 0.0247	-1.3839	-0.2432	
   552	 0.2535	 0.2169	-0.0337	 0.1397	-0.0114	 0.0891	-0.4344	 0.0258	-0.2297	 0.1493	-0.7696	-0.0005	-0.6394	 0.0301	-1.3494	-0.2384	
   553	 0.3392	 0.2206	 0.0008	 0.1445	 0.0577	 0.0988	-0.3208	 0.0623	-0.1774	 0.1649	-0.7429	 0.0156	-0.6049	 0.0349	-1.2881	-0.2175	
   554	 0.4004	 0.2416	 0.0609	 0.1488	 0.1267	 0.1085	-0.1984	 0.1042	-0.1251	 0.1804	-0.6739	 0.0253	-0.5615	 0.0451	-1.1846	-0.2030	
   555	 0.4606	 0.2459	 0.1210	 0.1531	 0.1957	 0.1181	-0.0682	 0.1348	-0.0817	 0.1906	-0.6383	 0.0468	-0.5102	 0.0440	-1.0889	-0.1772	
   556	 0.4951	 0.2507	 0.1723	 0.1520	 0.2470	 0.1171	 0.0275	 0.1606	-0.0472	 0.1955	-0.5871	 0.0457	-0.4835	 0.0601	-1.0099	-0.1455	
   557	 0.5207	 0.2502	 0.2068	 0.1568	 0.2815	 0.1219	 0.1055	 0.1756	-0.0127	 0.2003	-0.5436	 0.0559	-0.4490	 0.0650	-0.9152	-0.1364	
   558	 0.5463	 0.2496	 0.2324	 0.1563	 0.3071	 0.1214	 0.1745	 0.1853	 0.0129	 0.1997	-0.5091	 0.0607	-0.4067	 0.0585	-0.8373	-0.1214	
   559	 0.5630	 0.2437	 0.2580	 0.1558	 0.3327	 0.1208	 0.2012	 0.2014	 0.0386	 0.1992	-0.4746	 0.0656	-0.4056	 0.0752	-0.7850	-0.1058	
   560	 0.5630	 0.2437	 0.2747	 0.1498	 0.3416	 0.1262	 0.2268	 0.2009	 0.0475	 0.2046	-0.4657	 0.0709	-0.3800	 0.0746	-0.7416	-0.0956	
   561	 0.5463	 0.2496	 0.2658	 0.1445	 0.3583	 0.1203	 0.2179	 0.1955	 0.0731	 0.2040	-0.4401	 0.0704	-0.3465	 0.0628	-0.7238	-0.0849	
   562	 0.5452	 0.2330	 0.2658	 0.1445	 0.3583	 0.1203	 0.2168	 0.1788	 0.1076	 0.2089	-0.4312	 0.0758	-0.3376	 0.0682	-0.7071	-0.0908	
   563	 0.5285	 0.2389	 0.2402	 0.1450	 0.3416	 0.1262	 0.2069	 0.1568	 0.1254	 0.2196	-0.4145	 0.0698	-0.3376	 0.0682	-0.7071	-0.0908	
   564	 0.5107	 0.2282	 0.2313	 0.1396	 0.3327	 0.1208	 0.1723	 0.1520	 0.1688	 0.2298	-0.4056	 0.0752	-0.3376	 0.0682	-0.7159	-0.0961	
   565	 0.4851	 0.2287	 0.1890	 0.1461	 0.3327	 0.1208	 0.1378	 0.1472	 0.2044	 0.2513	-0.4056	 0.0752	-0.3298	 0.0569	-0.7248	-0.1015	
   566	 0.4762	 0.2233	 0.1712	 0.1354	 0.3160	 0.1267	 0.1200	 0.1364	 0.2656	 0.2722	-0.3800	 0.0747	-0.3376	 0.0682	-0.7248	-0.1015	
   567	 0.4428	 0.2351	 0.1534	 0.1246	 0.3238	 0.1154	 0.0944	 0.1370	 0.3101	 0.2991	-0.3544	 0.0741	-0.3376	 0.0682	-0.7159	-0.0961	
   568	 0.4339	 0.2298	 0.1445	 0.1192	 0.3071	 0.1214	 0.0855	 0.1316	 0.3713	 0.3200	-0.3533	 0.0908	-0.3209	 0.0623	-0.7071	-0.0908	
   569	 0.4161	 0.2190	 0.1100	 0.1144	 0.2982	 0.1160	 0.0677	 0.1209	 0.4325	 0.3410	-0.3277	 0.0902	-0.3209	 0.0623	-0.6814	-0.0913	
   570	 0.3905	 0.2196	 0.1011	 0.1090	 0.2893	 0.1106	 0.0499	 0.1101	 0.4937	 0.3619	-0.3020	 0.0897	-0.3209	 0.0623	-0.6647	-0.0972	
   571	 0.3727	 0.2088	 0.0666	 0.1042	 0.2637	 0.1112	 0.0065	 0.0999	 0.5215	 0.3947	-0.2842	 0.1004	-0.3209	 0.0623	-0.6725	-0.0859	
   572	 0.3382	 0.2040	 0.0488	 0.0935	 0.2292	 0.1063	-0.0536	 0.0956	 0.5649	 0.4049	-0.2753	 0.1058	-0.3209	 0.0623	-0.6725	-0.0859	
   573	 0.2947	 0.1938	 0.0231	 0.0940	 0.2114	 0.0956	-0.1059	 0.0801	 0.5749	 0.4269	-0.2832	 0.1171	-0.3376	 0.0682	-0.6982	-0.0854	
   574	 0.2602	 0.1890	-0.0114	 0.0892	 0.1768	 0.0908	-0.1582	 0.0645	 0.6005	 0.4263	-0.2832	 0.1171	-0.3465	 0.0628	-0.7159	-0.0961	
   575	 0.2257	 0.1841	-0.0292	 0.0784	 0.1423	 0.0859	-0.2106	 0.0489	 0.5927	 0.4376	-0.2832	 0.1171	-0.3633	 0.0687	-0.7248	-0.1015	
   576	 0.1990	 0.1680	-0.0804	 0.0795	 0.1000	 0.0924	-0.2540	 0.0387	 0.6016	 0.4430	-0.2999	 0.1230	-0.3800	 0.0746	-0.7583	-0.0897	
   577	 0.1478	 0.1691	-0.1149	 0.0747	 0.0733	 0.0763	-0.2974	 0.0285	 0.6016	 0.4430	-0.3088	 0.1176	-0.3722	 0.0634	-0.7672	-0.0951	
   578	 0.1133	 0.1643	-0.1416	 0.0586	 0.0310	 0.0827	-0.3486	 0.0296	 0.6105	 0.4483	-0.3177	 0.1123	-0.3889	 0.0693	-0.7839	-0.0892	
   579	 0.0788	 0.1594	-0.1928	 0.0597	 0.0043	 0.0666	-0.3920	 0.0194	 0.6283	 0.4591	-0.3511	 0.1241	-0.3889	 0.0693	-0.8095	-0.0886	
   580	 0.0442	 0.1546	-0.2363	 0.0494	-0.0470	 0.0677	-0.4611	 0.0097	 0.6461	 0.4698	-0.3767	 0.1246	-0.4056	 0.0752	-0.8184	-0.0940	
   581	 0.0097	 0.1498	-0.2797	 0.0392	-0.0737	 0.0516	-0.5045	-0.0005	 0.6639	 0.4806	-0.3856	 0.1192	-0.4145	 0.0698	-0.8440	-0.0934	
   582	-0.0337	 0.1396	-0.3231	 0.0290	-0.1082	 0.0467	-0.5646	-0.0048	 0.6817	 0.4913	-0.4201	 0.1144	-0.4234	 0.0644	-0.8529	-0.0988	
   583	-0.0938	 0.1353	-0.3665	 0.0188	-0.1516	 0.0365	-0.6169	-0.0203	 0.6738	 0.5026	-0.4458	 0.1150	-0.4568	 0.0762	-0.8874	-0.1036	
   584	-0.1372	 0.1251	-0.4177	 0.0199	-0.1861	 0.0317	-0.6603	-0.0305	 0.6649	 0.4972	-0.4803	 0.1101	-0.4657	 0.0709	-0.9131	-0.1031	
   585	-0.1806	 0.1149	-0.4444	 0.0038	-0.2373	 0.0328	-0.7027	-0.0241	 0.6393	 0.4977	-0.4981	 0.0994	-0.4746	 0.0655	-0.9387	-0.1026	
   586	-0.1984	 0.1041	-0.4789	-0.0010	-0.2462	 0.0274	-0.7027	-0.0241	 0.6137	 0.4983	-0.5326	 0.0945	-0.5002	 0.0660	-0.9476	-0.1079	
   587	-0.2063	 0.1154	-0.4957	 0.0049	-0.2373	 0.0328	-0.6681	-0.0193	 0.5959	 0.4875	-0.5671	 0.0897	-0.5091	 0.0607	-0.9554	-0.0967	
   588	-0.1717	 0.1203	-0.4957	 0.0049	-0.1861	 0.0317	-0.6069	 0.0017	 0.6215	 0.4870	-0.5671	 0.0897	-0.5091	 0.0607	-0.9376	-0.0859	
   589	-0.1283	 0.1305	-0.4789	-0.0010	-0.1427	 0.0419	-0.5112	 0.0274	 0.6393	 0.4977	-0.5415	 0.0892	-0.5002	 0.0660	-0.8775	-0.0816	
   590	-0.0771	 0.1294	-0.4533	-0.0016	-0.0826	 0.0462	-0.4244	 0.0478	 0.6660	 0.5139	-0.5148	 0.1053	-0.4579	 0.0596	-0.8173	-0.0773	
   591	-0.0504	 0.1455	-0.4277	-0.0021	-0.0391	 0.0564	-0.3465	 0.0629	 0.7005	 0.5187	-0.4636	 0.1042	-0.4401	 0.0703	-0.7483	-0.0677	
   592	-0.0081	 0.1390	-0.4021	-0.0026	-0.0046	 0.0612	-0.2774	 0.0725	 0.7262	 0.5181	-0.4290	 0.1090	-0.4223	 0.0811	-0.7049	-0.0575	
   593	 0.0086	 0.1331	-0.3854	-0.0085	 0.0210	 0.0607	-0.2340	 0.0827	 0.7429	 0.5122	-0.4113	 0.1198	-0.3800	 0.0746	-0.6448	-0.0532	
   594	 0.0086	 0.1331	-0.3854	-0.0085	 0.0377	 0.0548	-0.1995	 0.0876	 0.7340	 0.5069	-0.3856	 0.1192	-0.3544	 0.0741	-0.6102	-0.0483	
   595	-0.0003	 0.1278	-0.3686	-0.0144	 0.0299	 0.0661	-0.1828	 0.0817	 0.7251	 0.5015	-0.3689	 0.1133	-0.3455	 0.0795	-0.5925	-0.0376	
   596	-0.0170	 0.1337	-0.3686	-0.0144	 0.0210	 0.0607	-0.1828	 0.0817	 0.7073	 0.4908	-0.3522	 0.1074	-0.3366	 0.0848	-0.5747	-0.0269	
   597	-0.0180	 0.1170	-0.3854	-0.0085	 0.0121	 0.0553	-0.1995	 0.0876	 0.7073	 0.4908	-0.3600	 0.1187	-0.3277	 0.0902	-0.5490	-0.0274	
   598	-0.0604	 0.1235	-0.3943	-0.0139	-0.0135	 0.0559	-0.2095	 0.0656	 0.6984	 0.4854	-0.3600	 0.1187	-0.3277	 0.0902	-0.5490	-0.0274	
   599	-0.0860	 0.1240	-0.4032	-0.0193	-0.0313	 0.0451	-0.2440	 0.0607	 0.7062	 0.4741	-0.3689	 0.1133	-0.3198	 0.0789	-0.5490	-0.0274	
   600	-0.1038	 0.1133	-0.4288	-0.0187	-0.0569	 0.0457	-0.2785	 0.0559	 0.6806	 0.4747	-0.3778	 0.1080	-0.3366	 0.0848	-0.5747	-0.0269	
   601	-0.1127	 0.1079	-0.4377	-0.0241	-0.0826	 0.0462	-0.3130	 0.0511	 0.6639	 0.4806	-0.3778	 0.1080	-0.3366	 0.0848	-0.5668	-0.0381	
   602	-0.1383	 0.1084	-0.4555	-0.0348	-0.0915	 0.0408	-0.3308	 0.0403	 0.6550	 0.4752	-0.3867	 0.1026	-0.3366	 0.0848	-0.5836	-0.0322	
   603	-0.1639	 0.1090	-0.4644	-0.0402	-0.1003	 0.0355	-0.3564	 0.0409	 0.6461	 0.4698	-0.4034	 0.1085	-0.3366	 0.0848	-0.5925	-0.0376	
   604	-0.1817	 0.0982	-0.4900	-0.0397	-0.1260	 0.0360	-0.3742	 0.0301	 0.6116	 0.4650	-0.4212	 0.0978	-0.3533	 0.0907	-0.6013	-0.0430	
   605	-0.2073	 0.0988	-0.5156	-0.0391	-0.1349	 0.0306	-0.3998	 0.0307	 0.6027	 0.4596	-0.4301	 0.0924	-0.3533	 0.0907	-0.6102	-0.0483	
   606	-0.2419	 0.0939	-0.5412	-0.0386	-0.1605	 0.0312	-0.4176	 0.0199	 0.5849	 0.4489	-0.4557	 0.0929	-0.3533	 0.0907	-0.6191	-0.0537	
   607	-0.2764	 0.0891	-0.5590	-0.0493	-0.1783	 0.0204	-0.4522	 0.0151	 0.5592	 0.4494	-0.4814	 0.0935	-0.3700	 0.0966	-0.6359	-0.0478	
   608	-0.3031	 0.0730	-0.5935	-0.0542	-0.2295	 0.0215	-0.4867	 0.0103	 0.5336	 0.4500	-0.5159	 0.0886	-0.3789	 0.0913	-0.6615	-0.0473	
   609	-0.3543	 0.0741	-0.6280	-0.0590	-0.2640	 0.0167	-0.5390	-0.0053	 0.5080	 0.4505	-0.5337	 0.0779	-0.3878	 0.0859	-0.6871	-0.0467	
   610	-0.3977	 0.0639	-0.6626	-0.0638	-0.2907	 0.0006	-0.5991	-0.0096	 0.5069	 0.4339	-0.5682	 0.0731	-0.3967	 0.0805	-0.7049	-0.0575	
   611	-0.4244	 0.0478	-0.7060	-0.0740	-0.3420	 0.0016	-0.6514	-0.0252	 0.4813	 0.4344	-0.6194	 0.0741	-0.4223	 0.0811	-0.7561	-0.0564	
   612	-0.4589	 0.0429	-0.7405	-0.0789	-0.3686	-0.0145	-0.7116	-0.0295	 0.4635	 0.4236	-0.6539	 0.0693	-0.4479	 0.0816	-0.7739	-0.0671	
   613	-0.5191	 0.0386	-0.7839	-0.0891	-0.4199	-0.0134	-0.7639	-0.0450	 0.4379	 0.4242	-0.6806	 0.0532	-0.4735	 0.0821	-0.8252	-0.0661	
   614	-0.5625	 0.0284	-0.8440	-0.0934	-0.4633	-0.0236	-0.8162	-0.0606	 0.4123	 0.4247	-0.7151	 0.0484	-0.4992	 0.0827	-0.8597	-0.0709	
   615	-0.6059	 0.0182	-0.8875	-0.1036	-0.5067	-0.0338	-0.8685	-0.0762	 0.4034	 0.4194	-0.7497	 0.0435	-0.5170	 0.0719	-0.8942	-0.0757	
   616	-0.6493	 0.0080	-0.9476	-0.1079	-0.5579	-0.0327	-0.9453	-0.0746	 0.3778	 0.4199	-0.8009	 0.0446	-0.5426	 0.0725	-0.9209	-0.0918	
   617	-0.7094	 0.0037	-0.9832	-0.1293	-0.6181	-0.0370	-0.9977	-0.0901	 0.3522	 0.4204	-0.8354	 0.0398	-0.5771	 0.0677	-0.9554	-0.0967	
   618	-0.7439	-0.0011	-1.0344	-0.1283	-0.6448	-0.0531	-1.0500	-0.1057	 0.3265	 0.4210	-0.8699	 0.0350	-0.5949	 0.0569	-0.9899	-0.1015	
   619	-0.7874	-0.0113	-1.0867	-0.1438	-0.6960	-0.0521	-1.1190	-0.1154	 0.3009	 0.4215	-0.9044	 0.0301	-0.6372	 0.0634	-1.0166	-0.1176	
   620	-0.8386	-0.0102	-1.1380	-0.1428	-0.7227	-0.0682	-1.1791	-0.1197	 0.2831	 0.4108	-0.9390	 0.0253	-0.6550	 0.0526	-1.0678	-0.1165	
   621	-0.8731	-0.0150	-1.1725	-0.1476	-0.7650	-0.0617	-1.2136	-0.1245	 0.2486	 0.4059	-0.9824	 0.0151	-0.6728	 0.0419	-1.1024	-0.1214	
   622	-0.8987	-0.0145	-1.2070	-0.1524	-0.7739	-0.0671	-1.2304	-0.1186	 0.2230	 0.4065	-1.0169	 0.0103	-0.6984	 0.0424	-1.1369	-0.1262	
   623	-0.8731	-0.0150	-1.2159	-0.1578	-0.7394	-0.0623	-1.1702	-0.1143	 0.2141	 0.4011	-1.0425	 0.0108	-0.7073	 0.0370	-1.1369	-0.1262	
   624	-0.8386	-0.0102	-1.1992	-0.1637	-0.6960	-0.0521	-1.1001	-0.0880	 0.2141	 0.4011	-1.0347	-0.0005	-0.6984	 0.0424	-1.1113	-0.1267	
   625	-0.7952	-0.0000	-1.1903	-0.1583	-0.6270	-0.0424	-0.9966	-0.0735	 0.2141	 0.4011	-1.0258	 0.0049	-0.6895	 0.0478	-1.0678	-0.1165	
   626	-0.7439	-0.0011	-1.1646	-0.1589	-0.5836	-0.0322	-0.9098	-0.0531	 0.2397	 0.4006	-0.9834	-0.0016	-0.6639	 0.0473	-1.0244	-0.1063	
   627	-0.7094	 0.0037	-1.1390	-0.1594	-0.5490	-0.0274	-0.8407	-0.0434	 0.2564	 0.3947	-0.9578	-0.0021	-0.6294	 0.0521	-0.9643	-0.1020	
   628	-0.7005	 0.0091	-1.1390	-0.1594	-0.5234	-0.0279	-0.7973	-0.0332	 0.2821	 0.3941	-0.9400	 0.0086	-0.6038	 0.0515	-0.9376	-0.0859	
   629	-0.6927	-0.0022	-1.1390	-0.1594	-0.5234	-0.0279	-0.7884	-0.0279	 0.2909	 0.3995	-0.9311	 0.0140	-0.5949	 0.0569	-0.8953	-0.0924	
   630	-0.7094	 0.0037	-1.1390	-0.1594	-0.5234	-0.0279	-0.7884	-0.0279	 0.2909	 0.3995	-0.9144	 0.0081	-0.5782	 0.0510	-0.8864	-0.0870	
   631	-0.7261	 0.0097	-1.1479	-0.1648	-0.5323	-0.0333	-0.7973	-0.0332	 0.2909	 0.3995	-0.9311	 0.0140	-0.5782	 0.0510	-0.8696	-0.0929	
   632	-0.7607	 0.0048	-1.1735	-0.1642	-0.5579	-0.0327	-0.8318	-0.0381	 0.2909	 0.3995	-0.9311	 0.0140	-0.5949	 0.0569	-0.8864	-0.0870	
   633	-0.7785	-0.0059	-1.1913	-0.1750	-0.5757	-0.0435	-0.8663	-0.0429	 0.2653	 0.4000	-0.9567	 0.0146	-0.6038	 0.0515	-0.8953	-0.0924	
   634	-0.8130	-0.0108	-1.2170	-0.1744	-0.6181	-0.0370	-0.8930	-0.0590	 0.2397	 0.4006	-0.9745	 0.0038	-0.6205	 0.0575	-0.9042	-0.0977	
   635	-0.8475	-0.0156	-1.2348	-0.1852	-0.6192	-0.0537	-0.9354	-0.0526	 0.2219	 0.3898	-1.0002	 0.0044	-0.6127	 0.0462	-0.9209	-0.0918	
   636	-0.8564	-0.0210	-1.2604	-0.1846	-0.6448	-0.0531	-0.9532	-0.0633	 0.1874	 0.3850	-1.0180	-0.0064	-0.6294	 0.0521	-0.9465	-0.0913	
   637	-0.8820	-0.0204	-1.2693	-0.1900	-0.6615	-0.0472	-0.9699	-0.0574	 0.1785	 0.3796	-1.0269	-0.0118	-0.6383	 0.0467	-0.9465	-0.0913	
   638	-0.8909	-0.0258	-1.2949	-0.1895	-0.6704	-0.0526	-0.9710	-0.0740	 0.1607	 0.3689	-1.0358	-0.0171	-0.6383	 0.0467	-0.9554	-0.0967	
   639	-0.8998	-0.0312	-1.3127	-0.2002	-0.6793	-0.0580	-0.9966	-0.0735	 0.1696	 0.3743	-1.0447	-0.0225	-0.6550	 0.0526	-0.9554	-0.0967	
   640	-0.9254	-0.0306	-1.3305	-0.2109	-0.7049	-0.0574	-1.0311	-0.0783	 0.1529	 0.3802	-1.0614	-0.0166	-0.6639	 0.0473	-0.9643	-0.1020	
   641	-0.9510	-0.0301	-1.3728	-0.2045	-0.7305	-0.0569	-1.0656	-0.0832	 0.1529	 0.3802	-1.0703	-0.0220	-0.6639	 0.0473	-0.9899	-0.1015	
   642	-0.9855	-0.0349	-1.3828	-0.2265	-0.7483	-0.0676	-1.0834	-0.0939	 0.1440	 0.3748	-1.0959	-0.0214	-0.6728	 0.0419	-0.9988	-0.1069	
   643	-1.0122	-0.0510	-1.4173	-0.2314	-0.7739	-0.0671	-1.1179	-0.0987	 0.1184	 0.3753	-1.1304	-0.0263	-0.6984	 0.0424	-1.0244	-0.1063	
   644	-1.0300	-0.0618	-1.4429	-0.2308	-0.7917	-0.0778	-1.1524	-0.1036	 0.1095	 0.3700	-1.1560	-0.0257	-0.7073	 0.0370	-1.0411	-0.1004	
   645	-1.0724	-0.0553	-1.4774	-0.2356	-0.8341	-0.0714	-1.1781	-0.1030	 0.0750	 0.3651	-1.1738	-0.0365	-0.7330	 0.0376	-1.0500	-0.1058	
   646	-1.1069	-0.0601	-1.5031	-0.2351	-0.8519	-0.0821	-1.2126	-0.1079	 0.0572	 0.3544	-1.2083	-0.0413	-0.7418	 0.0322	-1.0589	-0.1112	
   647	-1.1247	-0.0709	-1.5209	-0.2458	-0.8864	-0.0870	-1.2560	-0.1181	 0.0315	 0.3549	-1.2261	-0.0520	-0.7675	 0.0328	-1.0846	-0.1106	
   648	-1.1592	-0.0757	-1.5554	-0.2507	-0.9209	-0.0918	-1.2994	-0.1283	 0.0226	 0.3496	-1.2606	-0.0569	-0.7853	 0.0220	-1.1191	-0.1155	
   649	-1.1848	-0.0752	-1.5899	-0.2555	-0.9554	-0.0966	-1.3506	-0.1272	 0.0049	 0.3388	-1.2952	-0.0617	-0.8109	 0.0226	-1.1369	-0.1262	
   650	-1.2360	-0.0741	-1.6411	-0.2544	-0.9732	-0.1074	-1.4029	-0.1428	-0.0208	 0.3394	-1.3297	-0.0665	-0.8287	 0.0118	-1.1714	-0.1310	
   651	-1.2795	-0.0843	-1.6845	-0.2646	-1.0244	-0.1063	-1.4464	-0.1530	-0.0642	 0.3292	-1.3475	-0.0773	-0.8543	 0.0124	-1.2059	-0.1359	
   652	-1.3062	-0.1004	-1.7190	-0.2695	-1.0589	-0.1111	-1.4898	-0.1632	-0.1076	 0.3190	-1.3987	-0.0762	-0.8799	 0.0129	-1.2404	-0.1407	
   653	-1.3574	-0.0993	-1.7625	-0.2797	-1.0767	-0.1219	-1.5332	-0.1734	-0.1599	 0.3034	-1.4421	-0.0864	-0.9055	 0.0134	-1.2749	-0.1455	
   654	-1.3919	-0.1042	-1.7970	-0.2845	-1.1113	-0.1267	-1.5677	-0.1782	-0.2200	 0.2991	-1.4766	-0.0912	-0.9144	 0.0081	-1.2927	-0.1563	
   655	-1.4008	-0.1095	-1.8148	-0.2952	-1.1202	-0.1321	-1.5933	-0.1776	-0.2723	 0.2835	-1.5279	-0.0901	-0.9400	 0.0086	-1.3351	-0.1498	
   656	-1.4008	-0.1095	-1.8404	-0.2947	-1.1369	-0.1261	-1.5933	-0.1776	-0.3069	 0.2787	-1.5624	-0.0950	-0.9657	 0.0091	-1.3607	-0.1493	
   657	-1.3752	-0.1101	-1.8571	-0.2888	-1.1024	-0.1213	-1.5588	-0.1728	-0.2990	 0.2674	-1.5713	-0.1003	-0.9578	-0.0021	-1.3696	-0.1546	
   658	-1.3396	-0.0886	-1.8404	-0.2947	-1.0589	-0.1111	-1.5065	-0.1572	-0.2901	 0.2728	-1.5713	-0.1003	-0.9578	-0.0021	-1.3529	-0.1606	
   659	-1.2962	-0.0784	-1.8315	-0.2893	-1.0155	-0.1009	-1.4453	-0.1363	-0.2556	 0.2776	-1.5457	-0.1009	-0.9489	 0.0032	-1.3272	-0.1611	
   660	-1.2449	-0.0795	-1.8226	-0.2840	-0.9554	-0.0966	-1.3595	-0.1325	-0.2289	 0.2937	-1.5111	-0.0960	-0.9066	-0.0032	-1.2927	-0.1563	
   661	-1.2271	-0.0687	-1.8059	-0.2899	-0.9209	-0.0918	-1.3161	-0.1223	-0.2033	 0.2932	-1.5022	-0.0907	-0.8810	-0.0038	-1.2582	-0.1514	
   662	-1.1937	-0.0805	-1.7892	-0.2958	-0.9031	-0.0810	-1.2727	-0.1121	-0.1866	 0.2873	-1.4766	-0.0912	-0.8721	 0.0016	-1.2237	-0.1466	
   663	-1.1937	-0.0805	-1.7803	-0.2904	-0.8942	-0.0757	-1.2382	-0.1073	-0.1955	 0.2819	-1.4766	-0.0912	-0.8632	 0.0070	-1.2059	-0.1359	
   664	-1.1937	-0.0805	-1.7635	-0.2963	-0.8775	-0.0816	-1.2126	-0.1079	-0.2044	 0.2765	-1.4599	-0.0971	-0.8543	 0.0124	-1.1803	-0.1364	
   665	-1.2104	-0.0746	-1.7546	-0.2909	-0.8775	-0.0816	-1.2204	-0.0966	-0.2133	 0.2712	-1.4688	-0.1025	-0.8376	 0.0064	-1.1547	-0.1369	
   666	-1.2026	-0.0859	-1.7546	-0.2909	-0.8864	-0.0870	-1.2126	-0.1079	-0.2222	 0.2658	-1.4777	-0.1079	-0.8376	 0.0064	-1.1625	-0.1257	
   667	-1.2282	-0.0854	-1.7635	-0.2963	-0.9120	-0.0864	-1.2471	-0.1127	-0.2222	 0.2658	-1.4866	-0.1132	-0.8465	 0.0011	-1.1547	-0.1369	
   668	-1.2538	-0.0848	-1.7892	-0.2958	-0.9298	-0.0972	-1.2905	-0.1229	-0.2311	 0.2604	-1.4955	-0.1186	-0.8632	 0.0070	-1.1803	-0.1364	
   669	-1.2795	-0.0843	-1.8237	-0.3006	-0.9721	-0.0907	-1.3506	-0.1272	-0.2389	 0.2717	-1.5044	-0.1240	-0.8721	 0.0016	-1.1981	-0.1471	
   670	-1.2884	-0.0897	-1.8493	-0.3001	-0.9810	-0.0961	-1.3851	-0.1320	-0.2389	 0.2717	-1.5211	-0.1181	-0.8810	-0.0038	-1.2237	-0.1466	
   671	-1.3140	-0.0891	-1.8582	-0.3054	-0.9899	-0.1015	-1.4029	-0.1428	-0.2467	 0.2830	-1.5467	-0.1175	-0.8899	-0.0091	-1.2326	-0.1520	
   672	-1.3229	-0.0945	-1.8838	-0.3049	-1.0066	-0.0955	-1.4197	-0.1368	-0.2556	 0.2776	-1.5556	-0.1229	-0.9066	-0.0032	-1.2493	-0.1461	
   673	-1.3229	-0.0945	-1.8760	-0.3162	-1.0066	-0.0955	-1.4197	-0.1368	-0.2556	 0.2776	-1.5724	-0.1170	-0.9066	-0.0032	-1.2326	-0.1520	
   674	-1.3318	-0.0999	-1.8927	-0.3103	-1.0155	-0.1009	-1.4364	-0.1309	-0.2645	 0.2722	-1.5724	-0.1170	-0.9155	-0.0086	-1.2326	-0.1520	
   675	-1.3407	-0.1052	-1.8927	-0.3103	-1.0155	-0.1009	-1.4286	-0.1422	-0.2901	 0.2728	-1.5813	-0.1224	-0.9322	-0.0027	-1.2404	-0.1407	
   676	-1.3574	-0.0993	-1.8927	-0.3103	-1.0412	-0.1004	-1.4542	-0.1417	-0.2912	 0.2561	-1.5902	-0.1277	-0.9411	-0.0080	-1.2493	-0.1461	
   677	-1.3663	-0.1047	-1.9016	-0.3156	-1.0589	-0.1111	-1.4720	-0.1524	-0.3168	 0.2567	-1.6158	-0.1272	-0.9500	-0.0134	-1.2660	-0.1402	
   678	-1.3752	-0.1101	-1.9105	-0.3210	-1.0678	-0.1165	-1.5154	-0.1626	-0.3336	 0.2626	-1.6247	-0.1326	-0.9667	-0.0075	-1.2749	-0.1455	
   679	-1.3841	-0.1154	-1.9361	-0.3205	-1.0935	-0.1159	-1.5499	-0.1674	-0.3257	 0.2513	-1.6414	-0.1267	-0.9756	-0.0129	-1.2927	-0.1563	
   680	-1.4097	-0.1149	-1.9617	-0.3199	-1.1113	-0.1267	-1.5933	-0.1776	-0.3514	 0.2518	-1.6503	-0.1320	-1.0012	-0.0123	-1.3183	-0.1557	
   681	-1.4353	-0.1144	-1.9795	-0.3307	-1.1536	-0.1202	-1.6278	-0.1825	-0.3770	 0.2524	-1.6759	-0.1315	-1.0101	-0.0177	-1.3440	-0.1552	
   682	-1.4609	-0.1138	-2.0051	-0.3301	-1.1714	-0.1310	-1.6712	-0.1927	-0.4115	 0.2475	-1.6937	-0.1422	-1.0279	-0.0285	-1.3785	-0.1600	
   683	-1.4787	-0.1246	-2.0397	-0.3350	-1.2137	-0.1245	-1.7147	-0.2029	-0.4293	 0.2368	-1.7193	-0.1417	-1.0536	-0.0279	-1.3963	-0.1708	
   684	-1.5043	-0.1240	-2.0575	-0.3457	-1.2315	-0.1353	-1.7581	-0.2131	-0.4549	 0.2373	-1.7449	-0.1411	-1.0703	-0.0220	-1.4386	-0.1643	
   685	-1.5221	-0.1348	-2.0998	-0.3393	-1.2660	-0.1401	-1.8015	-0.2233	-0.4805	 0.2379	-1.7794	-0.1460	-1.0881	-0.0327	-1.4653	-0.1804	
   686	-1.5645	-0.1283	-2.1343	-0.3441	-1.2838	-0.1508	-1.8616	-0.2276	-0.4894	 0.2325	-1.8051	-0.1454	-1.1137	-0.0322	-1.4998	-0.1853	
   687	-1.5823	-0.1391	-2.1688	-0.3489	-1.3183	-0.1557	-1.9217	-0.2319	-0.5061	 0.2384	-1.8396	-0.1503	-1.1393	-0.0317	-1.5343	-0.1901	
   688	-1.6246	-0.1326	-2.2033	-0.3538	-1.3607	-0.1492	-1.9652	-0.2421	-0.5150	 0.2331	-1.8652	-0.1497	-1.1571	-0.0424	-1.5688	-0.1949	
   689	-1.6424	-0.1434	-2.2289	-0.3532	-1.3785	-0.1600	-2.0007	-0.2636	-0.5317	 0.2390	-1.8908	-0.1492	-1.1827	-0.0419	-1.5955	-0.2110	
   690	-1.6847	-0.1369	-2.2635	-0.3581	-1.4130	-0.1648	-2.0520	-0.2625	-0.5406	 0.2336	-1.9164	-0.1487	-1.1838	-0.0585	-1.6379	-0.2046	
   691	-1.7104	-0.1364	-2.2813	-0.3688	-1.4386	-0.1643	-2.0865	-0.2673	-0.5663	 0.2341	-1.9342	-0.1594	-1.2261	-0.0521	-1.6646	-0.2207	
   692	-1.7104	-0.1364	-2.2902	-0.3742	-1.4386	-0.1643	-2.0865	-0.2673	-0.5663	 0.2341	-1.9520	-0.1701	-1.2518	-0.0515	-1.6902	-0.2201	
   693	-1.6758	-0.1315	-2.2980	-0.3629	-1.4041	-0.1594	-2.0264	-0.2630	-0.5741	 0.2454	-1.9520	-0.1701	-1.2439	-0.0628	-1.6991	-0.2255	
   694	-1.6157	-0.1273	-2.2556	-0.3693	-1.3351	-0.1498	-1.9395	-0.2426	-0.5485	 0.2449	-1.9520	-0.1701	-1.2439	-0.0628	-1.6813	-0.2148	
   695	-1.5545	-0.1063	-2.2289	-0.3532	-1.2660	-0.1401	-1.8438	-0.2168	-0.5307	 0.2556	-1.9264	-0.1707	-1.2261	-0.0521	-1.6468	-0.2099	
   696	-1.4944	-0.1020	-2.1944	-0.3484	-1.2137	-0.1245	-1.7737	-0.1905	-0.5051	 0.2551	-1.8997	-0.1546	-1.1838	-0.0585	-1.5866	-0.2057	
   697	-1.4342	-0.0977	-2.1432	-0.3495	-1.1536	-0.1202	-1.6958	-0.1755	-0.4794	 0.2545	-1.8574	-0.1610	-1.1660	-0.0478	-1.5432	-0.1955	
   698	-1.3997	-0.0929	-2.1087	-0.3446	-1.1191	-0.1154	-1.6356	-0.1712	-0.4794	 0.2545	-1.8396	-0.1503	-1.1237	-0.0542	-1.5087	-0.1906	
   699	-1.3819	-0.0822	-2.0831	-0.3452	-1.1013	-0.1047	-1.6011	-0.1664	-0.4794	 0.2545	-1.8307	-0.1449	-1.1226	-0.0376	-1.4831	-0.1912	
   700	-1.3730	-0.0768	-2.0742	-0.3398	-1.0846	-0.1106	-1.6090	-0.1551	-0.4716	 0.2433	-1.7972	-0.1567	-1.0892	-0.0494	-1.4575	-0.1917	
   701	-1.3474	-0.0773	-2.0653	-0.3344	-1.0757	-0.1052	-1.5755	-0.1669	-0.4716	 0.2433	-1.8051	-0.1454	-1.0803	-0.0440	-1.4408	-0.1976	
   702	-1.3474	-0.0773	-2.0564	-0.3291	-1.0757	-0.1052	-1.5922	-0.1610	-0.4716	 0.2433	-1.8051	-0.1454	-1.0881	-0.0327	-1.4408	-0.1976	
   703	-1.3396	-0.0886	-2.0653	-0.3344	-1.0757	-0.1052	-1.6100	-0.1717	-0.4716	 0.2433	-1.8140	-0.1508	-1.0714	-0.0387	-1.4408	-0.1976	
   704	-1.3563	-0.0827	-2.0653	-0.3344	-1.0924	-0.0993	-1.6189	-0.1771	-0.4716	 0.2433	-1.8307	-0.1449	-1.0714	-0.0387	-1.4408	-0.1976	
   705	-1.3563	-0.0827	-2.0653	-0.3344	-1.0846	-0.1106	-1.6445	-0.1766	-0.4716	 0.2433	-1.8307	-0.1449	-1.0714	-0.0387	-1.4575	-0.1917	
   706	-1.3563	-0.0827	-2.0653	-0.3344	-1.0846	-0.1106	-1.6534	-0.1819	-0.4805	 0.2379	-1.8396	-0.1503	-1.0714	-0.0387	-1.4497	-0.2030	
   707	-1.3396	-0.0886	-2.0653	-0.3344	-1.0924	-0.0993	-1.6534	-0.1819	-0.4894	 0.2325	-1.8396	-0.1503	-1.0714	-0.0387	-1.4664	-0.1971	
   708	-1.3474	-0.0773	-2.0564	-0.3291	-1.0757	-0.1052	-1.6534	-0.1819	-0.4983	 0.2271	-1.8485	-0.1556	-1.0881	-0.0327	-1.4831	-0.1912	
   709	-1.3307	-0.0832	-2.0564	-0.3291	-1.0757	-0.1052	-1.6534	-0.1819	-0.5072	 0.2218	-1.8574	-0.1610	-1.0881	-0.0327	-1.4664	-0.1971	
   710	-1.3385	-0.0720	-2.0397	-0.3350	-1.0757	-0.1052	-1.6534	-0.1819	-0.5072	 0.2218	-1.8574	-0.1610	-1.0881	-0.0327	-1.4831	-0.1912	
   711	-1.3385	-0.0720	-2.0475	-0.3237	-1.0757	-0.1052	-1.6534	-0.1819	-0.5239	 0.2277	-1.8574	-0.1610	-1.0803	-0.0440	-1.4831	-0.1912	
   712	-1.3218	-0.0779	-2.0475	-0.3237	-1.0757	-0.1052	-1.6623	-0.1873	-0.5161	 0.2164	-1.8663	-0.1664	-1.0970	-0.0381	-1.4831	-0.1912	
   713	-1.3218	-0.0779	-2.0475	-0.3237	-1.0924	-0.0993	-1.6791	-0.1814	-0.5328	 0.2223	-1.8663	-0.1664	-1.0970	-0.0381	-1.4753	-0.2024	
   714	-1.3218	-0.0779	-2.0475	-0.3237	-1.0924	-0.0993	-1.6880	-0.1868	-0.5506	 0.2116	-1.8830	-0.1605	-1.1059	-0.0435	-1.4920	-0.1965	
   715	-1.3385	-0.0720	-2.0475	-0.3237	-1.1013	-0.1047	-1.7058	-0.1975	-0.5762	 0.2121	-1.8919	-0.1658	-1.1226	-0.0376	-1.5087	-0.1906	
   716	-1.3307	-0.0832	-2.0475	-0.3237	-1.1102	-0.1100	-1.7314	-0.1970	-0.5940	 0.2014	-1.9175	-0.1653	-1.1315	-0.0429	-1.5176	-0.1960	
   717	-1.3474	-0.0773	-2.0475	-0.3237	-1.1269	-0.1041	-1.7570	-0.1964	-0.6029	 0.1960	-1.9264	-0.1707	-1.1315	-0.0429	-1.5432	-0.1955	
   718	-1.3474	-0.0773	-2.0642	-0.3178	-1.1358	-0.1095	-1.7915	-0.2013	-0.6118	 0.1906	-1.9353	-0.1760	-1.1404	-0.0483	-1.5521	-0.2008	
   719	-1.3730	-0.0768	-2.0731	-0.3232	-1.1614	-0.1090	-1.8260	-0.2061	-0.6285	 0.1965	-1.9520	-0.1701	-1.1493	-0.0537	-1.5610	-0.2062	
   720	-1.3730	-0.0768	-2.0820	-0.3285	-1.1703	-0.1143	-1.8438	-0.2168	-0.6374	 0.1912	-1.9609	-0.1755	-1.1582	-0.0591	-1.5788	-0.2169	
   721	-1.3819	-0.0822	-2.0909	-0.3339	-1.1959	-0.1138	-1.8783	-0.2217	-0.6542	 0.1971	-1.9776	-0.1696	-1.1749	-0.0531	-1.6044	-0.2164	
   722	-1.3908	-0.0875	-2.1243	-0.3221	-1.2048	-0.1192	-1.9128	-0.2265	-0.6631	 0.1917	-2.0033	-0.1691	-1.2005	-0.0526	-1.6133	-0.2218	
   723	-1.4164	-0.0870	-2.1332	-0.3274	-1.2304	-0.1186	-1.9385	-0.2260	-0.6887	 0.1922	-2.0122	-0.1744	-1.2172	-0.0467	-1.6390	-0.2212	
   724	-1.4332	-0.0811	-2.1421	-0.3328	-1.2472	-0.1127	-1.9563	-0.2367	-0.7065	 0.1815	-2.0210	-0.1798	-1.2261	-0.0521	-1.6479	-0.2266	
   725	-1.4332	-0.0811	-2.1421	-0.3328	-1.2472	-0.1127	-1.9563	-0.2367	-0.7154	 0.1761	-2.0388	-0.1905	-1.2261	-0.0521	-1.6735	-0.2261	
   726	-1.3986	-0.0762	-2.1332	-0.3274	-1.2126	-0.1079	-1.9128	-0.2265	-0.7243	 0.1708	-2.0556	-0.1846	-1.2261	-0.0521	-1.6735	-0.2261	
   727	-1.3463	-0.0607	-2.1065	-0.3113	-1.1603	-0.0923	-1.8427	-0.2002	-0.6987	 0.1702	-2.0467	-0.1793	-1.2172	-0.0467	-1.6557	-0.2153	
   728	-1.2517	-0.0515	-2.0464	-0.3070	-1.0746	-0.0886	-1.7392	-0.1857	-0.6809	 0.1810	-2.0289	-0.1685	-1.1827	-0.0419	-1.6123	-0.2051	
   729	-1.1738	-0.0365	-1.9774	-0.2974	-1.0134	-0.0676	-1.6346	-0.1546	-0.6542	 0.1971	-1.9776	-0.1696	-1.1482	-0.0370	-1.5599	-0.1895	
   730	-1.1125	-0.0156	-1.9172	-0.2931	-0.9443	-0.0580	-1.5399	-0.1454	-0.6029	 0.1960	-1.9342	-0.1594	-1.1137	-0.0322	-1.4998	-0.1853	
   731	-1.0435	-0.0059	-1.8649	-0.2775	-0.8842	-0.0537	-1.4787	-0.1245	-0.5595	 0.2062	-1.8830	-0.1605	-1.0792	-0.0274	-1.4486	-0.1863	
   732	-0.9756	-0.0129	-1.8137	-0.2786	-0.8408	-0.0435	-1.4353	-0.1143	-0.5417	 0.2169	-1.8396	-0.1503	-1.0447	-0.0225	-1.4052	-0.1761	
   733	-0.9322	-0.0027	-1.7870	-0.2625	-0.8063	-0.0386	-1.3841	-0.1154	-0.5161	 0.2164	-1.8051	-0.1454	-1.0190	-0.0231	-1.3796	-0.1767	
   734	-0.9055	 0.0134	-1.7358	-0.2636	-0.7718	-0.0338	-1.3495	-0.1105	-0.5072	 0.2218	-1.7705	-0.1406	-0.9845	-0.0183	-1.3450	-0.1718	
   735	-0.8631	 0.0070	-1.7012	-0.2587	-0.7540	-0.0231	-1.3239	-0.1111	-0.4983	 0.2271	-1.7449	-0.1411	-0.9756	-0.0129	-1.3194	-0.1724	
   736	-0.8453	 0.0177	-1.6835	-0.2480	-0.7284	-0.0236	-1.3318	-0.0998	-0.4727	 0.2266	-1.7104	-0.1363	-0.9500	-0.0134	-1.2938	-0.1729	
   737	-0.8197	 0.0172	-1.6411	-0.2544	-0.7116	-0.0295	-1.3318	-0.0998	-0.4638	 0.2320	-1.7015	-0.1309	-0.9411	-0.0080	-1.2849	-0.1675	
   738	-0.8186	 0.0338	-1.6400	-0.2378	-0.7195	-0.0182	-1.3239	-0.1111	-0.4471	 0.2261	-1.6926	-0.1256	-0.9411	-0.0080	-1.2682	-0.1734	
   739	-0.8097	 0.0392	-1.6311	-0.2324	-0.7027	-0.0241	-1.3495	-0.1105	-0.4471	 0.2261	-1.6670	-0.1261	-0.9244	-0.0140	-1.2849	-0.1675	
   740	-0.7763	 0.0274	-1.5888	-0.2389	-0.6938	-0.0188	-1.3495	-0.1105	-0.4471	 0.2261	-1.6581	-0.1207	-0.9322	-0.0027	-1.2849	-0.1675	
   741	-0.7585	 0.0381	-1.5710	-0.2281	-0.6771	-0.0247	-1.3328	-0.1164	-0.4560	 0.2207	-1.6414	-0.1267	-0.9322	-0.0027	-1.2849	-0.1675	
   742	-0.7251	 0.0263	-1.5532	-0.2174	-0.6849	-0.0134	-1.3250	-0.1277	-0.4649	 0.2153	-1.6325	-0.1213	-0.9155	-0.0086	-1.2849	-0.1675	
   743	-0.7162	 0.0317	-1.5276	-0.2179	-0.6682	-0.0193	-1.3250	-0.1277	-0.4905	 0.2159	-1.6403	-0.1100	-0.9155	-0.0086	-1.2771	-0.1788	
   744	-0.7073	 0.0370	-1.4931	-0.2131	-0.6593	-0.0139	-1.3328	-0.1164	-0.4827	 0.2046	-1.6314	-0.1046	-0.9155	-0.0086	-1.2849	-0.1675	
   745	-0.6984	 0.0424	-1.4842	-0.2077	-0.6426	-0.0198	-1.3250	-0.1277	-0.4916	 0.1992	-1.6225	-0.0993	-0.9155	-0.0086	-1.2849	-0.1675	
   746	-0.6728	 0.0419	-1.4753	-0.2024	-0.6504	-0.0086	-1.3417	-0.1218	-0.4994	 0.2105	-1.6058	-0.1052	-0.9155	-0.0086	-1.2849	-0.1675	
   747	-0.6639	 0.0472	-1.4586	-0.2083	-0.6337	-0.0145	-1.3417	-0.1218	-0.4905	 0.2159	-1.6136	-0.0939	-0.9233	 0.0027	-1.2849	-0.1675	
   748	-0.6717	 0.0585	-1.4664	-0.1970	-0.6415	-0.0032	-1.3584	-0.1159	-0.4816	 0.2212	-1.6047	-0.0885	-0.9066	-0.0032	-1.2760	-0.1622	
   749	-0.6628	 0.0639	-1.4497	-0.2029	-0.6415	-0.0032	-1.3584	-0.1159	-0.4816	 0.2212	-1.6047	-0.0885	-0.8977	 0.0022	-1.2760	-0.1622	
   750	-0.6461	 0.0580	-1.4497	-0.2029	-0.6415	-0.0032	-1.3752	-0.1100	-0.4905	 0.2159	-1.6047	-0.0885	-0.9055	 0.0134	-1.2760	-0.1622	
   751	-0.6461	 0.0580	-1.4575	-0.1916	-0.6583	 0.0027	-1.3919	-0.1041	-0.4916	 0.1992	-1.6214	-0.0826	-0.9055	 0.0134	-1.2760	-0.1622	
   752	-0.6461	 0.0580	-1.4575	-0.1916	-0.6839	 0.0032	-1.4097	-0.1148	-0.5083	 0.2051	-1.6214	-0.0826	-0.9055	 0.0134	-1.2927	-0.1563	
   753	-0.6628	 0.0639	-1.4575	-0.1916	-0.6928	-0.0021	-1.4442	-0.1197	-0.5261	 0.1944	-1.6392	-0.0934	-0.9144	 0.0081	-1.3183	-0.1557	
   754	-0.6717	 0.0585	-1.4664	-0.1970	-0.7106	-0.0129	-1.4787	-0.1245	-0.5428	 0.2003	-1.6559	-0.0875	-0.9233	 0.0027	-1.3194	-0.1724	
   755	-0.6973	 0.0591	-1.4831	-0.1911	-0.7362	-0.0123	-1.5054	-0.1406	-0.5428	 0.2003	-1.6481	-0.0987	-0.9489	 0.0032	-1.3450	-0.1718	
   756	-0.7229	 0.0596	-1.5087	-0.1905	-0.7618	-0.0118	-1.5399	-0.1454	-0.5428	 0.2003	-1.6727	-0.0815	-0.9578	-0.0021	-1.3707	-0.1713	
   757	-0.7407	 0.0488	-1.5176	-0.1959	-0.7707	-0.0172	-1.5744	-0.1503	-0.5595	 0.2062	-1.6648	-0.0928	-0.9835	-0.0016	-1.3885	-0.1820	
   758	-0.7496	 0.0435	-1.5176	-0.1959	-0.7963	-0.0166	-1.5922	-0.1610	-0.5851	 0.2067	-1.6905	-0.0923	-0.9924	-0.0070	-1.4141	-0.1815	
   759	-0.7585	 0.0381	-1.5176	-0.1959	-0.8052	-0.0220	-1.6090	-0.1551	-0.6197	 0.2019	-1.7072	-0.0864	-1.0180	-0.0064	-1.4397	-0.1810	
   760	-0.7496	 0.0435	-1.5087	-0.1905	-0.7796	-0.0225	-1.5912	-0.1444	-0.6374	 0.1912	-1.7161	-0.0917	-1.0347	-0.0005	-1.4486	-0.1863	
   761	-0.7062	 0.0537	-1.4820	-0.1744	-0.7362	-0.0123	-1.5221	-0.1347	-0.6463	 0.1858	-1.7239	-0.0805	-1.0347	-0.0005	-1.4486	-0.1863	
   762	-0.6283	 0.0687	-1.4219	-0.1701	-0.6672	-0.0027	-1.4186	-0.1202	-0.6374	 0.1912	-1.6894	-0.0756	-1.0091	-0.0011	-1.4141	-0.1815	
   763	-0.5336	 0.0778	-1.3529	-0.1605	-0.5892	 0.0124	-1.3307	-0.0832	-0.5862	 0.1901	-1.6460	-0.0654	-0.9746	 0.0038	-1.3539	-0.1772	
   764	-0.4468	 0.0982	-1.2838	-0.1508	-0.4946	 0.0215	-1.2182	-0.0633	-0.5172	 0.1998	-1.5769	-0.0558	-0.9233	 0.0027	-1.2927	-0.1563	
   765	-0.3689	 0.1133	-1.2148	-0.1411	-0.4166	 0.0365	-1.1147	-0.0488	-0.4482	 0.2094	-1.5079	-0.0461	-0.8632	 0.0070	-1.2237	-0.1466	
   766	-0.2909	 0.1283	-1.1369	-0.1261	-0.3554	 0.0575	-1.0279	-0.0284	-0.4037	 0.2363	-1.4478	-0.0418	-0.8198	 0.0172	-1.1547	-0.1369	
   767	-0.2219	 0.1380	-1.0767	-0.1218	-0.2786	 0.0559	-0.9499	-0.0134	-0.3602	 0.2465	-1.4044	-0.0316	-0.7764	 0.0274	-1.0778	-0.1385	
   768	-0.1529	 0.1476	-1.0077	-0.1122	-0.2352	 0.0661	-0.8809	-0.0037	-0.2923	 0.2395	-1.3442	-0.0273	-0.7162	 0.0317	-1.0255	-0.1230	
   769	-0.0927	 0.1519	-0.9476	-0.1079	-0.1750	 0.0704	-0.8286	 0.0119	-0.2656	 0.2556	-1.2930	-0.0284	-0.6728	 0.0419	-0.9821	-0.1128	
   770	-0.0493	 0.1621	-0.8953	-0.0923	-0.1483	 0.0865	-0.7685	 0.0162	-0.2400	 0.2551	-1.2585	-0.0236	-0.6383	 0.0467	-0.9387	-0.1026	
   771	 0.0019	 0.1611	-0.8351	-0.0880	-0.1138	 0.0913	-0.7418	 0.0323	-0.2055	 0.2599	-1.2240	-0.0187	-0.6116	 0.0628	-0.8953	-0.0924	
   772	 0.0197	 0.1718	-0.8006	-0.0832	-0.1049	 0.0967	-0.7083	 0.0205	-0.1799	 0.2594	-1.1895	-0.0139	-0.5771	 0.0677	-0.8608	-0.0875	
   773	 0.0286	 0.1772	-0.7828	-0.0724	-0.0882	 0.0908	-0.7083	 0.0205	-0.1631	 0.2534	-1.1717	-0.0032	-0.5515	 0.0671	-0.8351	-0.0881	
   774	 0.0542	 0.1766	-0.7483	-0.0676	-0.0793	 0.0961	-0.6994	 0.0258	-0.1542	 0.2588	-1.1628	 0.0022	-0.5426	 0.0725	-0.8262	-0.0827	
   775	 0.0798	 0.1761	-0.7227	-0.0681	-0.0537	 0.0956	-0.6994	 0.0258	-0.1542	 0.2588	-1.1371	 0.0017	-0.5170	 0.0719	-0.8095	-0.0886	
   776	 0.1055	 0.1756	-0.7049	-0.0574	-0.0448	 0.1010	-0.6827	 0.0199	-0.1453	 0.2642	-1.1282	 0.0070	-0.5081	 0.0773	-0.8173	-0.0773	
   777	 0.0976	 0.1868	-0.6960	-0.0520	-0.0281	 0.0951	-0.6827	 0.0199	-0.1453	 0.2642	-1.1193	 0.0124	-0.5070	 0.0940	-0.8006	-0.0832	
   778	 0.1311	 0.1750	-0.6782	-0.0413	-0.0192	 0.1004	-0.6905	 0.0312	-0.1286	 0.2583	-1.0937	 0.0119	-0.4814	 0.0934	-0.8006	-0.0832	
   779	 0.1232	 0.1863	-0.6526	-0.0418	-0.0270	 0.1117	-0.6738	 0.0253	-0.1453	 0.2642	-1.0848	 0.0172	-0.4725	 0.0988	-0.8006	-0.0832	
   780	 0.1321	 0.1917	-0.6348	-0.0311	-0.0103	 0.1058	-0.6649	 0.0307	-0.1286	 0.2583	-1.0759	 0.0226	-0.4636	 0.1042	-0.7917	-0.0779	
   781	 0.1489	 0.1858	-0.6181	-0.0370	-0.0103	 0.1058	-0.6816	 0.0366	-0.1364	 0.2696	-1.0503	 0.0221	-0.4547	 0.1095	-0.7917	-0.0779	
   782	 0.1489	 0.1858	-0.6092	-0.0316	-0.0103	 0.1058	-0.6905	 0.0312	-0.1186	 0.2803	-1.0336	 0.0162	-0.4380	 0.1036	-0.7750	-0.0838	
   783	 0.1321	 0.1917	-0.6003	-0.0263	-0.0192	 0.1004	-0.6994	 0.0258	-0.1097	 0.2857	-1.0414	 0.0274	-0.4380	 0.1036	-0.7917	-0.0779	
   784	 0.1400	 0.1804	-0.6003	-0.0263	-0.0281	 0.0951	-0.7250	 0.0264	-0.0920	 0.2964	-1.0247	 0.0215	-0.4380	 0.1036	-0.7917	-0.0779	
   785	 0.1311	 0.1750	-0.6003	-0.0263	-0.0448	 0.1010	-0.7507	 0.0269	-0.0663	 0.2959	-1.0325	 0.0328	-0.4547	 0.1095	-0.8173	-0.0773	
   786	 0.1055	 0.1756	-0.6003	-0.0263	-0.0626	 0.0902	-0.7852	 0.0221	-0.0574	 0.3012	-1.0325	 0.0328	-0.4714	 0.1154	-0.8262	-0.0827	
   787	 0.0798	 0.1761	-0.6092	-0.0316	-0.0882	 0.0908	-0.8108	 0.0226	-0.0574	 0.3012	-1.0492	 0.0387	-0.4714	 0.1154	-0.8430	-0.0768	
   788	 0.0709	 0.1707	-0.6170	-0.0203	-0.0971	 0.0854	-0.8197	 0.0172	-0.0663	 0.2959	-1.0492	 0.0387	-0.4803	 0.1101	-0.8519	-0.0822	
   789	 0.0453	 0.1713	-0.6170	-0.0203	-0.1395	 0.0918	-0.8375	 0.0065	-0.0831	 0.3018	-1.0581	 0.0333	-0.4803	 0.1101	-0.8686	-0.0763	
   790	 0.0364	 0.1659	-0.6337	-0.0144	-0.1651	 0.0924	-0.8631	 0.0070	-0.0831	 0.3018	-1.0581	 0.0333	-0.4970	 0.1160	-0.8853	-0.0704	
   791	 0.0108	 0.1664	-0.6259	-0.0257	-0.1829	 0.0816	-0.9054	 0.0135	-0.0998	 0.3077	-1.0581	 0.0333	-0.5059	 0.1106	-0.8942	-0.0757	
   792	-0.0148	 0.1670	-0.6593	-0.0139	-0.2085	 0.0822	-0.9154	-0.0085	-0.0998	 0.3077	-1.0749	 0.0393	-0.5226	 0.1165	-0.9198	-0.0752	
   793	-0.0326	 0.1562	-0.6771	-0.0246	-0.2263	 0.0714	-0.9499	-0.0134	-0.0998	 0.3077	-1.0838	 0.0339	-0.5315	 0.1111	-0.9376	-0.0859	
   794	-0.0582	 0.1568	-0.7027	-0.0241	-0.2686	 0.0779	-0.9844	-0.0182	-0.0909	 0.3130	-1.1005	 0.0398	-0.5482	 0.1171	-0.9465	-0.0913	
   795	-0.0927	 0.1519	-0.7116	-0.0295	-0.2697	 0.0612	-1.0101	-0.0176	-0.0998	 0.3077	-1.1094	 0.0344	-0.5571	 0.1117	-0.9721	-0.0908	
   796	-0.1184	 0.1525	-0.7294	-0.0402	-0.2953	 0.0618	-1.0435	-0.0058	-0.1254	 0.3082	-1.1183	 0.0291	-0.5571	 0.1117	-0.9810	-0.0961	
   797	-0.1184	 0.1525	-0.7294	-0.0402	-0.2953	 0.0618	-1.0179	-0.0064	-0.1343	 0.3028	-1.1517	 0.0409	-0.5739	 0.1176	-0.9977	-0.0902	
   798	-0.0838	 0.1573	-0.7116	-0.0295	-0.2686	 0.0779	-0.9489	 0.0033	-0.1510	 0.3088	-1.1350	 0.0350	-0.5571	 0.1117	-0.9888	-0.0849	
   799	-0.0148	 0.1670	-0.6604	-0.0305	-0.1918	 0.0763	-0.8698	 0.0350	-0.1421	 0.3141	-1.1094	 0.0344	-0.5393	 0.1224	-0.9621	-0.0687	
   800	 0.0709	 0.1707	-0.5914	-0.0209	-0.1138	 0.0913	-0.7574	 0.0548	-0.1076	 0.3190	-1.0660	 0.0446	-0.5048	 0.1273	-0.9020	-0.0644	
   801	 0.1400	 0.1804	-0.5391	-0.0053	-0.0448	 0.1010	-0.6539	 0.0693	-0.0475	 0.3233	-1.0136	 0.0602	-0.4536	 0.1262	-0.8330	-0.0548	
   802	 0.2012	 0.2013	-0.4700	 0.0044	 0.0242	 0.1106	-0.5503	 0.0838	 0.0216	 0.3329	-0.9279	 0.0640	-0.3935	 0.1305	-0.7551	-0.0398	
   803	 0.2780	 0.1997	-0.4177	 0.0199	 0.0765	 0.1262	-0.4724	 0.0989	 0.0739	 0.3485	-0.8756	 0.0795	-0.3668	 0.1466	-0.6860	-0.0301	
   804	 0.3382	 0.2040	-0.3409	 0.0183	 0.1367	 0.1305	-0.4034	 0.1085	 0.1251	 0.3474	-0.8155	 0.0838	-0.3234	 0.1568	-0.6259	-0.0258	
   805	 0.3649	 0.2201	-0.2886	 0.0339	 0.1801	 0.1407	-0.3510	 0.1241	 0.1763	 0.3463	-0.7720	 0.0940	-0.2721	 0.1557	-0.5825	-0.0156	
   806	 0.3994	 0.2249	-0.2284	 0.0382	 0.2146	 0.1455	-0.3076	 0.1343	 0.2109	 0.3512	-0.7286	 0.1042	-0.2376	 0.1605	-0.5480	-0.0108	
   807	 0.4339	 0.2298	-0.1683	 0.0425	 0.2491	 0.1504	-0.2564	 0.1332	 0.2287	 0.3619	-0.6774	 0.1031	-0.2031	 0.1654	-0.5134	-0.0059	
   808	 0.4506	 0.2239	-0.1338	 0.0473	 0.2825	 0.1385	-0.2475	 0.1386	 0.2554	 0.3780	-0.6429	 0.1080	-0.1686	 0.1702	-0.4789	-0.0011	
   809	 0.4506	 0.2239	-0.1249	 0.0527	 0.2747	 0.1498	-0.2475	 0.1386	 0.2899	 0.3828	-0.6084	 0.1128	-0.1597	 0.1756	-0.4533	-0.0016	
   810	 0.4506	 0.2239	-0.0993	 0.0521	 0.2747	 0.1498	-0.2397	 0.1273	 0.3166	 0.3990	-0.5827	 0.1123	-0.1341	 0.1750	-0.4444	 0.0037	
   811	 0.4506	 0.2239	-0.0993	 0.0521	 0.2747	 0.1498	-0.2486	 0.1219	 0.3511	 0.4038	-0.5650	 0.1230	-0.1252	 0.1804	-0.4277	-0.0022	
   812	 0.4506	 0.2239	-0.0737	 0.0516	 0.2914	 0.1439	-0.2486	 0.1219	 0.3778	 0.4199	-0.5393	 0.1225	-0.1163	 0.1858	-0.4355	 0.0091	
   813	 0.4506	 0.2239	-0.0815	 0.0629	 0.2914	 0.1439	-0.2653	 0.1278	 0.4201	 0.4134	-0.5137	 0.1219	-0.1074	 0.1911	-0.4188	 0.0032	
   814	 0.4506	 0.2239	-0.0648	 0.0570	 0.2914	 0.1439	-0.2653	 0.1278	 0.4379	 0.4242	-0.5048	 0.1273	-0.0906	 0.1852	-0.4188	 0.0032	
   815	 0.4506	 0.2239	-0.0637	 0.0736	 0.2914	 0.1439	-0.2564	 0.1332	 0.4635	 0.4236	-0.5037	 0.1439	-0.0818	 0.1906	-0.4021	-0.0027	
   816	 0.4506	 0.2239	-0.0470	 0.0677	 0.2914	 0.1439	-0.2564	 0.1332	 0.4646	 0.4403	-0.4870	 0.1380	-0.0729	 0.1960	-0.4099	 0.0086	
   817	 0.4417	 0.2185	-0.0381	 0.0731	 0.2747	 0.1498	-0.2653	 0.1278	 0.4902	 0.4398	-0.4859	 0.1547	-0.0729	 0.1960	-0.4099	 0.0086	
   818	 0.4417	 0.2185	-0.0213	 0.0672	 0.2658	 0.1444	-0.2742	 0.1225	 0.4913	 0.4564	-0.4692	 0.1488	-0.0640	 0.2013	-0.4099	 0.0086	
   819	 0.4161	 0.2190	-0.0213	 0.0672	 0.2402	 0.1450	-0.3165	 0.1289	 0.5169	 0.4559	-0.4770	 0.1601	-0.0640	 0.2013	-0.4188	 0.0032	
   820	 0.3905	 0.2196	-0.0548	 0.0790	 0.2224	 0.1342	-0.3510	 0.1241	 0.5258	 0.4612	-0.4770	 0.1601	-0.0729	 0.1960	-0.4277	-0.0022	
   821	 0.3727	 0.2088	-0.0637	 0.0736	 0.1968	 0.1348	-0.3777	 0.1080	 0.5347	 0.4666	-0.4770	 0.1601	-0.0896	 0.2019	-0.4533	-0.0016	
   822	 0.3214	 0.2099	-0.0893	 0.0741	 0.1790	 0.1240	-0.4123	 0.1032	 0.5269	 0.4779	-0.4859	 0.1547	-0.0985	 0.1965	-0.4711	-0.0124	
   823	 0.2869	 0.2051	-0.1238	 0.0693	 0.1367	 0.1305	-0.4468	 0.0983	 0.5191	 0.4892	-0.4859	 0.1547	-0.0985	 0.1965	-0.4967	-0.0118	
   824	 0.2691	 0.1943	-0.1494	 0.0699	 0.1189	 0.1197	-0.4813	 0.0935	 0.5180	 0.4725	-0.4948	 0.1493	-0.1074	 0.1911	-0.5223	-0.0113	
   825	 0.2346	 0.1895	-0.1672	 0.0591	 0.0765	 0.1262	-0.5158	 0.0887	 0.4924	 0.4730	-0.5205	 0.1499	-0.1241	 0.1970	-0.5480	-0.0108	
   826	 0.2090	 0.1900	-0.1928	 0.0597	 0.0587	 0.1155	-0.5503	 0.0838	 0.4757	 0.4790	-0.5372	 0.1558	-0.1330	 0.1917	-0.5569	-0.0161	
   827	 0.1745	 0.1852	-0.2185	 0.0602	 0.0242	 0.1106	-0.5848	 0.0790	 0.4757	 0.4790	-0.5461	 0.1504	-0.1419	 0.1863	-0.5825	-0.0156	
   828	 0.1567	 0.1745	-0.2363	 0.0494	 0.0064	 0.0999	-0.6282	 0.0688	 0.4757	 0.4790	-0.5639	 0.1397	-0.1675	 0.1868	-0.6170	-0.0204	
   829	 0.1222	 0.1696	-0.2708	 0.0446	-0.0281	 0.0951	-0.6628	 0.0640	 0.4757	 0.4790	-0.5806	 0.1456	-0.1931	 0.1874	-0.6270	-0.0424	
   830	 0.0709	 0.1707	-0.3053	 0.0398	-0.0626	 0.0902	-0.7062	 0.0538	 0.4678	 0.4902	-0.6062	 0.1461	-0.2020	 0.1820	-0.6615	-0.0473	
   831	 0.0442	 0.1546	-0.3487	 0.0296	-0.0971	 0.0854	-0.7496	 0.0436	 0.4678	 0.4902	-0.6151	 0.1407	-0.2276	 0.1826	-0.7038	-0.0408	
   832	-0.0070	 0.1557	-0.3910	 0.0360	-0.1316	 0.0806	-0.7841	 0.0387	 0.4589	 0.4849	-0.6329	 0.1300	-0.2365	 0.1772	-0.7216	-0.0516	
   833	-0.0504	 0.1455	-0.4177	 0.0199	-0.1661	 0.0757	-0.8186	 0.0339	 0.4333	 0.4854	-0.6585	 0.1305	-0.2621	 0.1777	-0.7472	-0.0510	
   834	-0.0849	 0.1407	-0.4433	 0.0205	-0.2007	 0.0709	-0.8609	 0.0403	 0.3988	 0.4806	-0.6852	 0.1144	-0.2878	 0.1783	-0.7650	-0.0618	
   835	-0.1194	 0.1358	-0.4779	 0.0156	-0.2352	 0.0661	-0.8787	 0.0296	 0.3810	 0.4698	-0.7275	 0.1209	-0.3223	 0.1734	-0.8074	-0.0553	
   836	-0.1372	 0.1251	-0.5035	 0.0162	-0.2441	 0.0607	-0.8955	 0.0355	 0.3721	 0.4645	-0.7453	 0.1101	-0.3312	 0.1681	-0.8330	-0.0548	
   837	-0.1283	 0.1305	-0.4957	 0.0049	-0.2519	 0.0720	-0.8609	 0.0403	 0.3554	 0.4704	-0.7710	 0.1107	-0.3401	 0.1627	-0.8419	-0.0602	
   838	-0.1027	 0.1299	-0.4957	 0.0049	-0.2096	 0.0655	-0.8008	 0.0446	 0.3721	 0.4645	-0.7877	 0.1166	-0.3401	 0.1627	-0.8419	-0.0602	
   839	-0.0593	 0.1401	-0.4779	 0.0156	-0.1572	 0.0811	-0.7140	 0.0650	 0.3810	 0.4698	-0.7542	 0.1048	-0.3234	 0.1568	-0.8074	-0.0553	
   840	 0.0008	 0.1444	-0.4188	 0.0033	-0.0882	 0.0908	-0.6104	 0.0795	 0.4155	 0.4747	-0.7364	 0.1155	-0.2888	 0.1616	-0.7639	-0.0451	
   841	 0.0275	 0.1605	-0.4010	 0.0140	-0.0448	 0.1010	-0.5325	 0.0946	 0.4579	 0.4682	-0.6852	 0.1144	-0.2710	 0.1724	-0.7127	-0.0462	
   842	 0.0620	 0.1653	-0.3665	 0.0188	 0.0064	 0.0999	-0.4713	 0.1155	 0.4757	 0.4790	-0.6507	 0.1193	-0.2365	 0.1772	-0.6693	-0.0360	
   843	 0.0877	 0.1648	-0.3487	 0.0296	 0.0409	 0.1047	-0.4112	 0.1198	 0.5102	 0.4838	-0.5995	 0.1182	-0.2020	 0.1820	-0.6181	-0.0371	
   844	 0.0966	 0.1702	-0.3064	 0.0231	 0.0666	 0.1042	-0.3678	 0.1300	 0.5358	 0.4832	-0.5984	 0.1348	-0.1764	 0.1815	-0.5836	-0.0322	
   845	 0.1222	 0.1696	-0.2975	 0.0285	 0.0844	 0.1149	-0.3332	 0.1348	 0.5525	 0.4773	-0.5728	 0.1343	-0.1419	 0.1863	-0.5658	-0.0215	
   846	 0.1389	 0.1637	-0.2797	 0.0392	 0.1100	 0.1144	-0.2987	 0.1397	 0.5614	 0.4827	-0.5472	 0.1337	-0.1163	 0.1858	-0.5401	-0.0220	
   847	 0.1389	 0.1637	-0.2629	 0.0333	 0.1100	 0.1144	-0.2898	 0.1450	 0.5781	 0.4768	-0.5215	 0.1332	-0.0906	 0.1852	-0.5145	-0.0226	
   848	 0.1300	 0.1584	-0.2540	 0.0387	 0.1100	 0.1144	-0.2898	 0.1450	 0.5870	 0.4822	-0.5294	 0.1445	-0.0818	 0.1906	-0.5056	-0.0172	
   849	 0.1133	 0.1643	-0.2462	 0.0274	 0.1011	 0.1090	-0.2987	 0.1397	 0.5959	 0.4875	-0.5126	 0.1386	-0.0818	 0.1906	-0.5056	-0.0172	
   850	 0.1044	 0.1589	-0.2462	 0.0274	 0.0755	 0.1095	-0.3076	 0.1343	 0.6137	 0.4983	-0.5126	 0.1386	-0.0729	 0.1960	-0.5056	-0.0172	
   851	 0.0877	 0.1648	-0.2551	 0.0221	 0.0587	 0.1155	-0.3332	 0.1348	 0.6315	 0.5090	-0.5037	 0.1439	-0.0650	 0.1847	-0.5145	-0.0226	
   852	 0.0788	 0.1594	-0.2718	 0.0280	 0.0666	 0.1042	-0.3421	 0.1295	 0.6493	 0.5198	-0.4870	 0.1380	-0.0650	 0.1847	-0.5234	-0.0279	
   853	 0.0699	 0.1541	-0.2807	 0.0226	 0.0498	 0.1101	-0.3678	 0.1300	 0.6671	 0.5305	-0.4870	 0.1380	-0.0650	 0.1847	-0.5323	-0.0333	
   854	 0.0442	 0.1546	-0.2896	 0.0172	 0.0409	 0.1047	-0.3678	 0.1300	 0.6838	 0.5246	-0.4870	 0.1380	-0.0729	 0.1960	-0.5579	-0.0328	
   855	 0.0353	 0.1492	-0.2985	 0.0119	 0.0242	 0.1106	-0.3767	 0.1246	 0.6749	 0.5192	-0.4870	 0.1380	-0.0729	 0.1960	-0.5579	-0.0328	
   856	 0.0097	 0.1498	-0.3320	 0.0237	 0.0153	 0.1053	-0.4023	 0.1252	 0.6660	 0.5139	-0.5037	 0.1439	-0.0729	 0.1960	-0.5668	-0.0381	
   857	-0.0159	 0.1503	-0.3409	 0.0183	 0.0064	 0.0999	-0.4112	 0.1198	 0.6493	 0.5198	-0.5126	 0.1386	-0.0729	 0.1960	-0.5668	-0.0381	
   858	-0.0248	 0.1449	-0.3409	 0.0183	-0.0192	 0.1004	-0.4368	 0.1203	 0.6404	 0.5144	-0.5294	 0.1445	-0.0729	 0.1960	-0.5836	-0.0322	
   859	-0.0504	 0.1455	-0.3665	 0.0188	-0.0448	 0.1010	-0.4546	 0.1096	 0.6326	 0.5257	-0.5215	 0.1332	-0.0818	 0.1906	-0.5925	-0.0376	
   860	-0.0682	 0.1347	-0.3843	 0.0081	-0.0793	 0.0961	-0.4980	 0.0994	 0.6415	 0.5310	-0.5383	 0.1391	-0.0906	 0.1852	-0.6102	-0.0483	
   861	-0.1105	 0.1412	-0.4188	 0.0033	-0.0971	 0.0854	-0.5581	 0.0951	 0.6504	 0.5364	-0.5304	 0.1278	-0.0995	 0.1799	-0.6359	-0.0478	
   862	-0.1372	 0.1251	-0.4533	-0.0016	-0.1316	 0.0806	-0.5937	 0.0736	 0.6504	 0.5364	-0.5639	 0.1397	-0.1252	 0.1804	-0.6704	-0.0526	
   863	-0.1717	 0.1203	-0.4878	-0.0064	-0.1661	 0.0757	-0.6539	 0.0693	 0.6337	 0.5423	-0.5817	 0.1289	-0.1508	 0.1809	-0.7216	-0.0516	
   864	-0.2230	 0.1213	-0.5223	-0.0112	-0.2007	 0.0709	-0.6973	 0.0591	 0.6248	 0.5369	-0.6073	 0.1295	-0.1764	 0.1815	-0.7561	-0.0564	
   865	-0.2497	 0.1052	-0.5658	-0.0214	-0.2352	 0.0661	-0.7407	 0.0489	 0.6159	 0.5316	-0.6162	 0.1241	-0.1775	 0.1648	-0.7739	-0.0671	
   866	-0.2842	 0.1004	-0.5914	-0.0209	-0.2697	 0.0612	-0.7841	 0.0387	 0.5903	 0.5321	-0.6507	 0.1193	-0.2198	 0.1713	-0.8084	-0.0720	
   867	-0.3265	 0.1068	-0.6092	-0.0316	-0.3042	 0.0564	-0.8442	 0.0344	 0.5814	 0.5267	-0.6763	 0.1198	-0.2376	 0.1605	-0.8519	-0.0822	
   868	-0.3521	 0.1074	-0.6348	-0.0311	-0.3309	 0.0403	-0.8876	 0.0242	 0.5568	 0.5439	-0.7019	 0.1203	-0.2632	 0.1611	-0.8785	-0.0983	
   869	-0.3610	 0.1020	-0.6604	-0.0305	-0.3654	 0.0355	-0.9478	 0.0199	 0.5568	 0.5439	-0.7108	 0.1150	-0.2977	 0.1562	-0.9298	-0.0972	
   870	-0.3788	 0.0913	-0.6860	-0.0300	-0.3999	 0.0306	-1.0001	 0.0044	 0.5657	 0.5493	-0.7275	 0.1209	-0.3155	 0.1455	-0.9654	-0.1187	
   871	-0.3877	 0.0859	-0.7116	-0.0295	-0.4344	 0.0258	-1.0357	-0.0171	 0.5746	 0.5547	-0.7364	 0.1155	-0.3422	 0.1294	-1.0177	-0.1343	
