OxySoft export of:	E:\???????????\changsha\????\fNIRES????\CUTIN\49-0-1
Export date:	2022/12/13 16:37:44
Start of measurement:	2022-11-24 17:50:57.891

Datafile sample rate:	50.00	Hz
Datafile duration:	32.720	s
Datafile total number of samples:	1636

Description:	

Optode-template:	OctaMon+ 2x4 channel
Optode distance (mm):	 30.00	30.00
Optode gradients (mm):	 -	-
DPF:	5.85	5.85

Device id:	16168
# Receivers:	2
# Light sources:	16
# ADC:	1

Light source wavelengths:
device	index	wavelength
1	1	844	nm
1	2	757	nm
1	3	844	nm
1	4	757	nm
1	5	844	nm
1	6	757	nm
1	7	844	nm
1	8	757	nm
1	9	844	nm
1	10	757	nm
1	11	844	nm
1	12	757	nm
1	13	844	nm
1	14	757	nm
1	15	844	nm
1	16	757	nm

Export sample rate:	50.00	Hz
Selected time span:	0	32.720
Selected time span (sample numbers):	0	1636


Legend:
Column	Trace (Measurement)
1	(Sample number)
2	Rx1-Tx1 O2Hb (49-0-1)
3	Rx1-Tx1 HHb (49-0-1)
4	Rx1-Tx2 O2Hb (49-0-1)
5	Rx1-Tx2 HHb (49-0-1)
6	Rx1-Tx3 O2Hb (49-0-1)
7	Rx1-Tx3 HHb (49-0-1)
8	Rx1-Tx4 O2Hb (49-0-1)
9	Rx1-Tx4 HHb (49-0-1)
10	Rx2-Tx5 O2Hb (49-0-1)
11	Rx2-Tx5 HHb (49-0-1)
12	Rx2-Tx6 O2Hb (49-0-1)
13	Rx2-Tx6 HHb (49-0-1)
14	Rx2-Tx7 O2Hb (49-0-1)
15	Rx2-Tx7 HHb (49-0-1)
16	Rx2-Tx8 O2Hb (49-0-1)
17	Rx2-Tx8 HHb (49-0-1)
18	(Event)


1	2	3	4	5	6	7	8	9	10	11	12	13	14	15	16	17	18
     0	123.9330	85.0516	128.5198	85.3721	132.9988	88.1228	125.2466	82.7572	126.0585	83.8069	113.5196	79.9196	130.2981	86.5571	127.1774	86.5614	
     1	123.9330	85.0516	128.5198	85.3721	132.9988	88.1228	125.2466	82.7572	126.0585	83.8069	113.5196	79.9196	130.2981	86.5571	127.1774	86.5614	
     2	 0.7895	 0.0445	 0.8742	 0.0317	 0.5533	 0.0940	 0.8740	 0.1595	-0.7196	-0.4183	-0.4223	-0.4468	 0.0861	-0.1240	 0.8939	 0.2034	
     3	 0.7895	 0.0445	 0.8742	 0.0317	 0.5533	 0.0940	 0.8740	 0.1595	-0.7196	-0.4183	-0.4223	-0.4468	 0.0861	-0.1240	 0.8939	 0.2034	
     4	 0.7895	 0.0445	 0.8653	 0.0263	 0.5366	 0.0999	 0.8740	 0.1595	-0.7029	-0.4242	-0.4312	-0.4521	 0.0861	-0.1240	 0.8594	 0.1986	
     5	 0.7895	 0.0445	 0.8397	 0.0269	 0.5277	 0.0945	 0.8651	 0.1541	-0.7107	-0.4129	-0.4568	-0.4516	 0.0861	-0.1240	 0.8248	 0.1938	
     6	 0.7639	 0.0451	 0.8308	 0.0215	 0.5099	 0.0838	 0.8562	 0.1487	-0.7196	-0.4183	-0.4824	-0.4511	 0.0693	-0.1181	 0.7981	 0.1777	
     7	 0.7383	 0.0456	 0.8052	 0.0220	 0.4843	 0.0843	 0.8305	 0.1493	-0.7364	-0.4124	-0.4913	-0.4564	 0.0437	-0.1176	 0.7547	 0.1675	
     8	 0.7116	 0.0295	 0.7796	 0.0226	 0.4665	 0.0736	 0.8216	 0.1439	-0.7453	-0.4177	-0.5080	-0.4505	 0.0437	-0.1176	 0.7113	 0.1573	
     9	 0.6771	 0.0247	 0.7618	 0.0118	 0.4409	 0.0741	 0.7793	 0.1504	-0.7630	-0.4285	-0.5247	-0.4446	 0.0181	-0.1170	 0.6679	 0.1471	
    10	 0.6336	 0.0145	 0.7362	 0.0124	 0.4063	 0.0693	 0.7615	 0.1396	-0.7976	-0.4333	-0.5503	-0.4441	 0.0092	-0.1224	 0.6245	 0.1369	
    11	 0.6158	 0.0037	 0.7106	 0.0129	 0.3885	 0.0585	 0.7359	 0.1402	-0.8243	-0.4494	-0.5592	-0.4495	-0.0242	-0.1106	 0.5900	 0.1320	
    12	 0.5813	-0.0011	 0.6849	 0.0134	 0.3629	 0.0591	 0.7103	 0.1407	-0.8588	-0.4542	-0.5760	-0.4436	-0.0498	-0.1101	 0.5644	 0.1326	
    13	 0.5635	-0.0118	 0.6593	 0.0140	 0.3284	 0.0543	 0.6925	 0.1300	-0.8677	-0.4596	-0.5760	-0.4436	-0.0587	-0.1154	 0.5466	 0.1218	
    14	 0.5546	-0.0172	 0.6504	 0.0086	 0.3106	 0.0435	 0.6501	 0.1364	-0.8844	-0.4537	-0.5671	-0.4382	-0.0844	-0.1149	 0.5377	 0.1165	
    15	 0.5379	-0.0113	 0.6415	 0.0032	 0.2761	 0.0387	 0.6324	 0.1257	-0.8844	-0.4537	-0.5582	-0.4328	-0.0933	-0.1203	 0.5120	 0.1170	
    16	 0.5212	-0.0054	 0.6159	 0.0038	 0.2416	 0.0339	 0.5978	 0.1208	-0.8755	-0.4483	-0.5571	-0.4162	-0.1189	-0.1197	 0.4864	 0.1175	
    17	 0.5379	-0.0113	 0.5981	-0.0070	 0.2071	 0.0290	 0.5633	 0.1160	-0.8744	-0.4317	-0.5315	-0.4167	-0.1278	-0.1251	 0.4519	 0.1127	
    18	 0.5301	-0.0000	 0.5725	-0.0064	 0.1637	 0.0188	 0.5366	 0.0999	-0.8822	-0.4204	-0.5393	-0.4054	-0.1701	-0.1186	 0.4252	 0.0966	
    19	 0.5390	 0.0054	 0.5469	-0.0059	 0.1291	 0.0140	 0.4943	 0.1063	-0.8733	-0.4150	-0.5215	-0.3947	-0.1790	-0.1240	 0.3740	 0.0977	
    20	 0.5479	 0.0107	 0.5380	-0.0112	 0.0946	 0.0092	 0.4509	 0.0961	-0.8644	-0.4097	-0.5126	-0.3893	-0.2046	-0.1235	 0.3395	 0.0928	
    21	 0.5490	 0.0274	 0.5124	-0.0107	 0.0768	-0.0016	 0.4331	 0.0854	-0.8723	-0.3984	-0.5204	-0.3780	-0.2135	-0.1288	 0.3128	 0.0767	
    22	 0.5579	 0.0327	 0.5035	-0.0161	 0.0423	-0.0064	 0.3986	 0.0806	-0.8723	-0.3984	-0.5115	-0.3727	-0.2391	-0.1283	 0.2694	 0.0665	
    23	 0.5668	 0.0381	 0.4946	-0.0215	 0.0078	-0.0112	 0.3641	 0.0757	-0.8723	-0.3984	-0.5193	-0.3614	-0.2480	-0.1337	 0.2260	 0.0563	
    24	 0.5757	 0.0435	 0.4611	-0.0096	-0.0100	-0.0220	 0.3374	 0.0596	-0.8801	-0.3871	-0.5361	-0.3555	-0.2737	-0.1331	 0.1993	 0.0402	
    25	 0.5589	 0.0494	 0.4433	-0.0204	-0.0523	-0.0155	 0.2861	 0.0607	-0.8879	-0.3758	-0.5439	-0.3442	-0.2826	-0.1385	 0.1391	 0.0359	
    26	 0.5155	 0.0392	 0.3654	-0.0354	-0.1928	 0.0596	 0.3552	 0.0704	-0.8623	-0.3764	-0.5350	-0.3388	-0.2826	-0.1385	 0.1046	 0.0311	
    27	 0.4230	 0.0633	 0.3198	-0.0789	-0.3255	 0.1235	 0.3740	 0.0977	-0.8534	-0.3710	-0.5428	-0.3276	-0.2737	-0.1331	 0.1035	 0.0145	
    28	 0.5155	 0.0392	 0.3020	-0.0896	-0.3500	 0.1407	 0.3740	 0.0977	-0.8178	-0.3495	-0.5161	-0.3115	-0.2559	-0.1224	 0.1124	 0.0198	
    29	 0.5155	 0.0392	 0.2532	-0.1831	-0.4390	 0.0870	 0.0904	-0.0574	-0.7577	-0.3452	-0.4727	-0.3013	-0.1957	-0.1181	 0.1558	 0.0300	
    30	 0.4222	-0.0811	 0.0667	-0.4236	-0.8365	 0.0231	-0.2839	-0.5552	-0.6975	-0.3409	-0.4204	-0.2857	-0.1523	-0.1079	 0.2327	 0.0284	
    31	 0.4368	-0.1203	 0.0567	-0.4456	-0.7426	-0.1122	-0.5107	-0.7560	-0.6452	-0.3254	-0.3425	-0.2707	-0.0922	-0.1036	 0.3017	 0.0381	
    32	 0.5325	-0.0945	 0.1724	-0.3758	-0.5466	-0.1218	-0.3527	-0.6926	-0.5929	-0.3098	-0.2645	-0.2556	-0.0655	-0.0875	 0.3708	 0.0477	
    33	 0.6727	-0.0419	 0.3247	-0.2679	-0.3139	-0.0934	-0.1024	-0.5256	-0.5328	-0.3055	-0.2033	-0.2347	-0.0310	-0.0827	 0.4231	 0.0633	
    34	 0.7795	 0.0225	 0.4771	-0.1600	-0.0577	-0.0988	 0.0799	-0.3517	-0.4894	-0.2953	-0.1254	-0.2197	 0.0114	-0.0891	 0.4832	 0.0676	
    35	 0.8941	 0.0757	 0.5849	-0.0789	 0.0825	-0.0462	 0.3223	-0.1734	-0.4459	-0.2851	-0.0720	-0.1874	 0.0292	-0.0784	 0.5522	 0.0773	
    36	 0.9386	 0.1025	 0.7095	-0.0037	 0.2383	-0.0161	 0.5280	-0.0333	-0.4114	-0.2803	 0.0137	-0.1837	 0.0548	-0.0789	 0.5956	 0.0875	
    37	 1.0009	 0.1401	 0.8074	 0.0553	 0.3675	-0.0021	 0.6715	 0.0693	-0.3769	-0.2754	 0.0661	-0.1681	 0.0804	-0.0794	 0.6302	 0.0923	
    38	 1.0621	 0.1611	 0.8775	 0.0816	 0.4287	 0.0188	 0.7693	 0.1283	-0.3591	-0.2647	 0.1340	-0.1751	 0.0893	-0.0741	 0.6647	 0.0971	
    39	 1.0788	 0.1552	 0.9387	 0.1026	 0.4721	 0.0290	 0.8316	 0.1659	-0.3335	-0.2652	 0.1518	-0.1644	 0.1060	-0.0800	 0.6736	 0.1025	
    40	 1.0699	 0.1498	 0.9476	 0.1079	 0.4810	 0.0344	 0.8494	 0.1767	-0.3246	-0.2599	 0.1774	-0.1649	 0.1149	-0.0746	 0.6814	 0.0912	
    41	 1.0443	 0.1503	 0.9476	 0.1079	 0.4810	 0.0344	 0.8405	 0.1713	-0.3157	-0.2545	 0.1774	-0.1649	 0.1149	-0.0746	 0.6647	 0.0971	
    42	 1.0265	 0.1396	 0.9309	 0.1139	 0.4643	 0.0403	 0.8149	 0.1718	-0.3068	-0.2491	 0.1774	-0.1649	 0.1238	-0.0692	 0.6647	 0.0971	
    43	 0.9920	 0.1347	 0.9220	 0.1085	 0.4643	 0.0403	 0.8138	 0.1552	-0.3068	-0.2491	 0.1774	-0.1649	 0.1327	-0.0639	 0.6725	 0.0859	
    44	 0.9575	 0.1299	 0.9131	 0.1031	 0.4476	 0.0462	 0.8049	 0.1498	-0.2979	-0.2438	 0.1518	-0.1644	 0.1494	-0.0698	 0.6558	 0.0918	
    45	 0.9397	 0.1192	 0.8963	 0.1090	 0.4476	 0.0462	 0.7871	 0.1391	-0.2890	-0.2384	 0.1351	-0.1584	 0.1416	-0.0585	 0.6469	 0.0864	
    46	 0.8963	 0.1090	 0.8786	 0.0983	 0.4554	 0.0349	 0.7782	 0.1337	-0.2801	-0.2330	 0.1351	-0.1584	 0.1583	-0.0644	 0.6469	 0.0864	
    47	 0.8618	 0.1041	 0.8697	 0.0929	 0.4387	 0.0408	 0.7526	 0.1342	-0.2712	-0.2277	 0.1351	-0.1584	 0.1505	-0.0531	 0.6469	 0.0864	
    48	 0.8361	 0.1047	 0.8440	 0.0934	 0.4387	 0.0408	 0.7604	 0.1230	-0.2456	-0.2282	 0.1440	-0.1531	 0.1594	-0.0478	 0.6469	 0.0864	
    49	 0.8183	 0.0939	 0.8273	 0.0994	 0.4387	 0.0408	 0.7515	 0.1176	-0.2367	-0.2228	 0.1529	-0.1477	 0.1594	-0.0478	 0.6469	 0.0864	
    50	 0.8094	 0.0886	 0.8184	 0.0940	 0.4220	 0.0467	 0.7259	 0.1181	-0.2189	-0.2121	 0.1618	-0.1423	 0.1594	-0.0478	 0.6469	 0.0864	
    51	 0.7671	 0.0950	 0.7928	 0.0945	 0.4131	 0.0414	 0.7170	 0.1128	-0.2011	-0.2014	 0.1796	-0.1316	 0.1594	-0.0478	 0.6469	 0.0864	
    52	 0.7415	 0.0956	 0.7839	 0.0892	 0.3964	 0.0473	 0.7081	 0.1074	-0.1744	-0.1852	 0.1807	-0.1150	 0.1594	-0.0478	 0.6469	 0.0864	
    53	 0.7237	 0.0848	 0.7416	 0.0956	 0.3786	 0.0365	 0.6658	 0.1138	-0.1399	-0.1804	 0.1974	-0.1209	 0.1427	-0.0419	 0.6302	 0.0923	
    54	 0.6892	 0.0800	 0.7071	 0.0908	 0.3697	 0.0312	 0.6480	 0.1031	-0.1299	-0.1584	 0.1807	-0.1150	 0.1338	-0.0472	 0.6045	 0.0928	
    55	 0.6458	 0.0698	 0.6725	 0.0859	 0.3519	 0.0204	 0.6135	 0.0983	-0.1199	-0.1364	 0.1807	-0.1150	 0.1338	-0.0472	 0.5956	 0.0875	
    56	 0.6113	 0.0650	 0.6291	 0.0757	 0.3263	 0.0210	 0.5790	 0.0934	-0.0943	-0.1369	 0.1472	-0.1031	 0.1171	-0.0413	 0.5611	 0.0826	
    57	 0.5678	 0.0548	 0.5857	 0.0655	 0.2917	 0.0161	 0.5277	 0.0945	-0.0932	-0.1203	 0.1383	-0.1085	 0.1082	-0.0467	 0.5433	 0.0719	
    58	 0.5333	 0.0499	 0.5512	 0.0607	 0.2661	 0.0167	 0.5010	 0.0784	-0.0932	-0.1203	 0.1205	-0.1192	 0.0914	-0.0408	 0.5088	 0.0671	
    59	 0.4988	 0.0451	 0.5078	 0.0505	 0.2405	 0.0172	 0.4498	 0.0795	-0.1021	-0.1256	 0.0949	-0.1187	 0.0658	-0.0402	 0.4743	 0.0622	
    60	 0.4643	 0.0403	 0.4566	 0.0516	 0.2060	 0.0124	 0.4231	 0.0634	-0.1356	-0.1138	 0.0693	-0.1182	 0.0737	-0.0515	 0.4320	 0.0687	
    61	 0.4465	 0.0295	 0.4220	 0.0467	 0.1804	 0.0129	 0.3719	 0.0645	-0.1445	-0.1192	 0.0437	-0.1176	 0.0480	-0.0510	 0.3975	 0.0638	
    62	 0.4042	 0.0360	 0.3953	 0.0306	 0.1626	 0.0022	 0.3452	 0.0483	-0.1701	-0.1187	 0.0181	-0.1171	 0.0313	-0.0451	 0.3629	 0.0590	
    63	 0.3697	 0.0311	 0.3441	 0.0317	 0.1370	 0.0027	 0.3185	 0.0322	-0.1790	-0.1240	 0.0003	-0.1278	 0.0057	-0.0445	 0.3284	 0.0542	
    64	 0.3351	 0.0263	 0.3007	 0.0215	 0.1192	-0.0080	 0.2672	 0.0333	-0.1879	-0.1294	-0.0254	-0.1273	-0.0032	-0.0499	 0.2939	 0.0493	
    65	 0.3006	 0.0215	 0.2495	 0.0226	 0.0768	-0.0016	 0.2238	 0.0231	-0.2046	-0.1235	-0.0677	-0.1209	-0.0288	-0.0494	 0.2672	 0.0332	
    66	 0.2661	 0.0166	 0.2060	 0.0124	 0.0590	-0.0123	 0.1893	 0.0183	-0.2135	-0.1289	-0.0933	-0.1203	-0.0544	-0.0488	 0.2327	 0.0284	
    67	 0.2316	 0.0118	 0.1715	 0.0076	 0.0245	-0.0172	 0.1459	 0.0081	-0.2224	-0.1342	-0.1189	-0.1198	-0.0722	-0.0596	 0.1815	 0.0295	
    68	 0.1882	 0.0016	 0.1203	 0.0086	-0.0100	-0.0220	 0.1114	 0.0032	-0.2391	-0.1283	-0.1534	-0.1246	-0.1146	-0.0531	 0.1469	 0.0247	
    69	 0.1537	-0.0032	 0.0936	-0.0075	-0.0445	-0.0268	 0.0680	-0.0070	-0.2558	-0.1224	-0.1791	-0.1241	-0.1324	-0.0639	 0.1124	 0.0198	
    70	 0.1191	-0.0081	 0.0591	-0.0123	-0.0701	-0.0263	 0.0256	-0.0005	-0.2469	-0.1170	-0.2047	-0.1235	-0.1413	-0.0692	 0.0868	 0.0204	
    71	 0.1024	-0.0022	 0.0413	-0.0231	-0.0701	-0.0263	 0.0256	-0.0005	-0.2213	-0.1176	-0.1968	-0.1348	-0.1413	-0.0692	 0.1035	 0.0145	
    72	 0.1448	-0.0086	 0.0502	-0.0177	-0.0278	-0.0327	 0.0434	 0.0102	-0.2114	-0.0956	-0.1880	-0.1294	-0.1324	-0.0639	 0.1380	 0.0193	
    73	 0.1882	 0.0016	 0.0847	-0.0129	 0.0078	-0.0112	 0.1036	 0.0145	-0.1768	-0.0907	-0.1534	-0.1246	-0.0811	-0.0649	 0.1904	 0.0349	
    74	 0.2405	 0.0172	 0.1281	-0.0026	 0.0679	-0.0070	 0.1648	 0.0355	-0.1256	-0.0918	-0.1178	-0.1031	-0.0544	-0.0488	 0.2594	 0.0445	
    75	 0.2839	 0.0274	 0.1883	 0.0016	 0.1370	 0.0027	 0.2338	 0.0451	-0.1000	-0.0924	-0.0577	-0.0988	-0.0032	-0.0499	 0.3195	 0.0488	
    76	 0.3519	 0.0204	 0.2317	 0.0118	 0.1804	 0.0129	 0.2861	 0.0607	-0.0655	-0.0875	-0.0065	-0.0999	 0.0313	-0.0451	 0.3629	 0.0590	
    77	 0.3785	 0.0365	 0.2662	 0.0167	 0.2149	 0.0177	 0.3374	 0.0596	-0.0221	-0.0773	 0.0369	-0.0897	 0.0658	-0.0402	 0.4063	 0.0692	
    78	 0.4042	 0.0360	 0.3085	 0.0102	 0.2572	 0.0113	 0.3808	 0.0698	 0.0125	-0.0725	 0.0547	-0.0790	 0.0836	-0.0295	 0.4487	 0.0628	
    79	 0.4298	 0.0354	 0.3430	 0.0151	 0.2750	 0.0220	 0.4064	 0.0693	 0.0302	-0.0617	 0.0803	-0.0795	 0.1092	-0.0300	 0.4576	 0.0681	
    80	 0.4387	 0.0408	 0.3519	 0.0204	 0.3006	 0.0215	 0.4320	 0.0687	 0.0559	-0.0623	 0.1149	-0.0747	 0.1349	-0.0306	 0.4832	 0.0676	
    81	 0.4387	 0.0408	 0.3686	 0.0145	 0.3006	 0.0215	 0.4409	 0.0741	 0.0904	-0.0575	 0.1327	-0.0639	 0.1605	-0.0311	 0.5088	 0.0671	
    82	 0.4387	 0.0408	 0.3775	 0.0199	 0.3095	 0.0269	 0.4409	 0.0741	 0.0915	-0.0408	 0.1505	-0.0532	 0.1527	-0.0198	 0.5088	 0.0671	
    83	 0.4220	 0.0467	 0.3608	 0.0258	 0.3006	 0.0215	 0.4320	 0.0687	 0.1004	-0.0354	 0.1594	-0.0478	 0.1694	-0.0258	 0.4921	 0.0730	
    84	 0.4298	 0.0354	 0.3608	 0.0258	 0.3006	 0.0215	 0.4320	 0.0687	 0.1171	-0.0413	 0.1761	-0.0537	 0.1616	-0.0145	 0.4832	 0.0676	
    85	 0.4052	 0.0526	 0.3608	 0.0258	 0.2839	 0.0274	 0.4153	 0.0747	 0.1260	-0.0360	 0.1683	-0.0425	 0.1616	-0.0145	 0.4743	 0.0622	
    86	 0.4131	 0.0413	 0.3608	 0.0258	 0.2839	 0.0274	 0.4231	 0.0634	 0.1349	-0.0306	 0.1939	-0.0430	 0.1616	-0.0145	 0.4576	 0.0681	
    87	 0.4131	 0.0413	 0.3519	 0.0204	 0.2917	 0.0161	 0.4064	 0.0693	 0.1438	-0.0252	 0.1939	-0.0430	 0.1783	-0.0204	 0.4409	 0.0740	
    88	 0.3963	 0.0472	 0.3519	 0.0204	 0.2917	 0.0161	 0.3897	 0.0752	 0.1359	-0.0140	 0.1861	-0.0317	 0.1705	-0.0091	 0.4320	 0.0687	
    89	 0.3874	 0.0419	 0.3352	 0.0263	 0.2750	 0.0220	 0.3975	 0.0639	 0.1448	-0.0086	 0.1949	-0.0264	 0.1626	 0.0022	 0.4231	 0.0633	
    90	 0.3785	 0.0365	 0.3185	 0.0322	 0.2750	 0.0220	 0.3886	 0.0585	 0.1448	-0.0086	 0.2117	-0.0323	 0.1794	-0.0037	 0.3975	 0.0638	
    91	 0.3451	 0.0483	 0.3096	 0.0269	 0.2583	 0.0279	 0.3552	 0.0704	 0.1448	-0.0086	 0.2127	-0.0156	 0.1794	-0.0037	 0.3886	 0.0585	
    92	 0.3362	 0.0429	 0.2929	 0.0328	 0.2494	 0.0226	 0.3463	 0.0650	 0.1281	-0.0027	 0.1960	-0.0097	 0.1626	 0.0022	 0.3629	 0.0590	
    93	 0.3184	 0.0322	 0.2840	 0.0274	 0.2238	 0.0231	 0.3285	 0.0543	 0.1281	-0.0027	 0.2127	-0.0156	 0.1626	 0.0022	 0.3540	 0.0536	
    94	 0.2928	 0.0327	 0.2416	 0.0339	 0.1982	 0.0237	 0.2861	 0.0607	 0.1281	-0.0027	 0.1793	-0.0038	 0.1370	 0.0027	 0.3195	 0.0488	
    95	 0.2583	 0.0279	 0.2160	 0.0344	 0.1726	 0.0242	 0.2683	 0.0500	 0.1114	 0.0032	 0.1871	-0.0151	 0.1448	-0.0086	 0.2850	 0.0440	
    96	 0.2238	 0.0231	 0.1982	 0.0237	 0.1469	 0.0247	 0.2338	 0.0451	 0.0947	 0.0091	 0.1782	-0.0205	 0.1114	 0.0032	 0.2416	 0.0338	
    97	 0.1814	 0.0295	 0.1804	 0.0129	 0.1291	 0.0140	 0.1993	 0.0403	 0.0858	 0.0038	 0.1448	-0.0086	 0.1025	-0.0021	 0.2071	 0.0289	
    98	 0.1380	 0.0193	 0.1292	 0.0140	 0.1035	 0.0145	 0.1481	 0.0414	 0.0691	 0.0097	 0.1192	-0.0081	 0.0936	-0.0075	 0.1637	 0.0187	
    99	 0.1035	 0.0145	 0.1036	 0.0145	 0.0690	 0.0097	 0.1046	 0.0312	 0.0435	 0.0102	 0.0936	-0.0076	 0.0680	-0.0070	 0.1124	 0.0198	
   100	 0.0690	 0.0097	 0.0691	 0.0097	 0.0434	 0.0102	 0.0780	 0.0151	 0.0178	 0.0107	 0.0590	-0.0124	 0.0424	-0.0064	 0.0857	 0.0037	
   101	 0.0345	 0.0048	 0.0346	 0.0049	 0.0256	-0.0005	 0.0267	 0.0161	 0.0089	 0.0054	 0.0334	-0.0119	 0.0335	-0.0118	 0.0345	 0.0048	
   102	-0.0000	-0.0000	 0.0000	 0.0000	-0.0000	 0.0000	 0.0000	 0.0000	 0.0000	 0.0000	-0.0000	-0.0000	 0.0000	 0.0000	-0.0000	-0.0000	
   103	-0.0346	-0.0048	-0.0423	 0.0065	-0.0424	 0.0065	-0.0423	 0.0065	-0.0334	 0.0118	-0.0256	 0.0005	-0.0089	-0.0053	-0.0345	-0.0049	
   104	-0.0691	-0.0097	-0.0601	-0.0043	-0.0602	-0.0043	-0.0768	 0.0016	-0.0423	 0.0064	-0.0345	-0.0049	-0.0267	-0.0161	-0.0690	-0.0097	
   105	-0.1036	-0.0145	-0.1024	 0.0022	-0.0858	-0.0037	-0.1281	 0.0027	-0.0512	 0.0011	-0.0601	-0.0043	-0.0601	-0.0043	-0.1036	-0.0145	
   106	-0.1470	-0.0247	-0.1369	-0.0026	-0.1203	-0.0086	-0.1548	-0.0134	-0.0679	 0.0070	-0.0858	-0.0038	-0.0690	-0.0096	-0.1470	-0.0247	
   107	-0.1815	-0.0295	-0.1715	-0.0075	-0.1381	-0.0193	-0.1893	-0.0182	-0.0935	 0.0075	-0.1114	-0.0033	-0.0946	-0.0091	-0.1815	-0.0296	
   108	-0.2160	-0.0344	-0.2060	-0.0123	-0.1804	-0.0129	-0.2238	-0.0231	-0.1113	-0.0032	-0.1370	-0.0027	-0.1202	-0.0086	-0.2327	-0.0285	
   109	-0.2505	-0.0392	-0.2405	-0.0171	-0.1982	-0.0236	-0.2672	-0.0333	-0.1291	-0.0140	-0.1548	-0.0135	-0.1291	-0.0139	-0.2505	-0.0392	
   110	-0.2851	-0.0440	-0.2828	-0.0107	-0.2238	-0.0231	-0.3017	-0.0381	-0.1636	-0.0188	-0.1893	-0.0183	-0.1469	-0.0247	-0.2850	-0.0441	
   111	-0.3029	-0.0548	-0.2917	-0.0161	-0.2494	-0.0225	-0.3273	-0.0376	-0.1725	-0.0242	-0.1982	-0.0237	-0.1636	-0.0188	-0.3185	-0.0323	
   112	-0.3029	-0.0548	-0.2917	-0.0161	-0.2494	-0.0225	-0.3106	-0.0435	-0.1814	-0.0295	-0.2316	-0.0119	-0.1636	-0.0188	-0.3017	-0.0382	
   113	-0.2851	-0.0440	-0.2828	-0.0107	-0.2149	-0.0177	-0.2839	-0.0274	-0.1725	-0.0242	-0.2060	-0.0124	-0.1547	-0.0134	-0.2672	-0.0333	
   114	-0.2505	-0.0392	-0.2483	-0.0059	-0.1804	-0.0129	-0.2483	-0.0059	-0.1469	-0.0247	-0.1637	-0.0188	-0.1202	-0.0086	-0.2238	-0.0231	
   115	-0.2071	-0.0290	-0.2049	 0.0043	-0.1203	-0.0086	-0.1882	-0.0016	-0.1213	-0.0252	-0.1203	-0.0086	-0.0779	-0.0150	-0.1715	-0.0076	
   116	-0.1648	-0.0354	-0.1704	 0.0092	-0.0769	 0.0016	-0.1192	 0.0081	-0.1124	-0.0199	-0.1025	 0.0021	-0.0601	-0.0043	-0.1281	 0.0026	
   117	-0.1470	-0.0247	-0.1359	 0.0140	-0.0591	 0.0124	-0.0925	 0.0242	-0.1035	-0.0145	-0.0601	-0.0043	-0.0345	-0.0048	-0.0936	 0.0075	
   118	-0.1303	-0.0306	-0.1103	 0.0135	-0.0335	 0.0118	-0.0501	 0.0177	-0.0868	-0.0204	-0.0512	 0.0010	-0.0089	-0.0053	-0.0680	 0.0069	
   119	-0.1214	-0.0252	-0.0925	 0.0242	-0.0078	 0.0113	-0.0323	 0.0285	-0.0868	-0.0204	-0.0345	-0.0049	 0.0000	 0.0000	-0.0591	 0.0123	
   120	-0.1303	-0.0306	-0.0757	 0.0183	-0.0078	 0.0113	-0.0323	 0.0285	-0.0790	-0.0317	-0.0345	-0.0049	 0.0000	 0.0000	-0.0591	 0.0123	
   121	-0.1470	-0.0247	-0.0668	 0.0237	-0.0078	 0.0113	-0.0156	 0.0226	-0.0957	-0.0258	-0.0423	 0.0064	 0.0000	 0.0000	-0.0591	 0.0123	
   122	-0.1648	-0.0354	-0.0757	 0.0183	-0.0246	 0.0172	-0.0245	 0.0172	-0.1124	-0.0199	-0.0591	 0.0123	 0.0000	 0.0000	-0.0680	 0.0069	
   123	-0.1904	-0.0349	-0.0925	 0.0242	-0.0335	 0.0118	-0.0501	 0.0177	-0.1213	-0.0252	-0.0680	 0.0069	-0.0089	-0.0053	-0.0769	 0.0016	
   124	-0.2082	-0.0456	-0.1014	 0.0188	-0.0424	 0.0065	-0.0757	 0.0183	-0.1469	-0.0247	-0.0601	-0.0043	-0.0256	 0.0006	-0.1025	 0.0021	
   125	-0.2338	-0.0451	-0.1014	 0.0188	-0.0591	 0.0124	-0.0757	 0.0183	-0.1558	-0.0301	-0.0769	 0.0016	-0.0423	 0.0065	-0.1281	 0.0026	
   126	-0.2427	-0.0505	-0.1181	 0.0247	-0.0591	 0.0124	-0.0846	 0.0129	-0.1558	-0.0301	-0.0690	-0.0097	-0.0423	 0.0065	-0.1370	-0.0027	
   127	-0.2683	-0.0499	-0.1181	 0.0247	-0.0758	 0.0183	-0.0846	 0.0129	-0.1647	-0.0354	-0.1114	-0.0033	-0.0345	-0.0048	-0.1459	-0.0081	
   128	-0.2861	-0.0607	-0.1348	 0.0306	-0.0680	 0.0070	-0.0935	 0.0075	-0.1736	-0.0408	-0.1114	-0.0033	-0.0434	-0.0102	-0.1626	-0.0022	
   129	-0.3029	-0.0548	-0.1270	 0.0194	-0.0847	 0.0129	-0.1103	 0.0135	-0.1647	-0.0354	-0.1114	-0.0033	-0.0601	-0.0043	-0.1715	-0.0076	
   130	-0.3117	-0.0601	-0.1437	 0.0253	-0.0936	 0.0075	-0.1024	 0.0022	-0.1647	-0.0354	-0.1192	 0.0080	-0.0601	-0.0043	-0.1882	-0.0016	
   131	-0.3463	-0.0650	-0.1693	 0.0258	-0.1025	 0.0022	-0.1281	 0.0027	-0.1814	-0.0295	-0.1281	 0.0026	-0.0857	-0.0037	-0.1971	-0.0070	
   132	-0.3641	-0.0757	-0.1782	 0.0204	-0.1281	 0.0027	-0.1537	 0.0033	-0.1992	-0.0403	-0.1615	 0.0145	-0.0946	-0.0091	-0.2316	-0.0119	
   133	-0.3986	-0.0805	-0.2038	 0.0210	-0.1459	-0.0080	-0.1882	-0.0016	-0.2248	-0.0397	-0.1704	 0.0091	-0.1035	-0.0145	-0.2662	-0.0167	
   134	-0.4331	-0.0854	-0.2216	 0.0102	-0.1882	-0.0016	-0.2060	-0.0123	-0.2426	-0.0505	-0.2128	 0.0155	-0.1291	-0.0139	-0.2840	-0.0274	
   135	-0.4676	-0.0902	-0.2472	 0.0108	-0.2060	-0.0123	-0.2483	-0.0059	-0.2850	-0.0440	-0.2138	-0.0011	-0.1547	-0.0134	-0.3185	-0.0323	
   136	-0.4854	-0.1009	-0.2817	 0.0060	-0.2406	-0.0171	-0.2828	-0.0107	-0.3028	-0.0548	-0.2316	-0.0119	-0.1804	-0.0129	-0.3530	-0.0371	
   137	-0.5199	-0.1058	-0.3074	 0.0065	-0.2751	-0.0220	-0.3006	-0.0214	-0.3284	-0.0542	-0.2573	-0.0113	-0.1893	-0.0182	-0.3875	-0.0419	
   138	-0.5623	-0.0993	-0.3330	 0.0070	-0.3096	-0.0268	-0.3351	-0.0263	-0.3540	-0.0537	-0.2907	 0.0005	-0.2071	-0.0290	-0.4131	-0.0414	
   139	-0.5800	-0.1101	-0.3675	 0.0022	-0.3441	-0.0316	-0.3864	-0.0252	-0.3718	-0.0644	-0.2996	-0.0049	-0.2327	-0.0284	-0.4476	-0.0462	
   140	-0.6146	-0.1149	-0.4098	 0.0086	-0.3619	-0.0424	-0.4042	-0.0359	-0.4063	-0.0693	-0.3341	-0.0097	-0.2583	-0.0279	-0.4821	-0.0510	
   141	-0.6491	-0.1197	-0.4276	-0.0021	-0.3964	-0.0472	-0.4387	-0.0408	-0.4241	-0.0800	-0.3597	-0.0092	-0.2839	-0.0274	-0.5167	-0.0559	
   142	-0.6836	-0.1246	-0.4700	 0.0043	-0.4309	-0.0520	-0.4732	-0.0456	-0.4586	-0.0848	-0.3942	-0.0140	-0.3017	-0.0381	-0.5679	-0.0548	
   143	-0.7181	-0.1294	-0.4878	-0.0064	-0.4654	-0.0569	-0.5077	-0.0504	-0.4842	-0.0843	-0.4288	-0.0188	-0.3273	-0.0376	-0.6024	-0.0596	
   144	-0.7526	-0.1342	-0.5223	-0.0112	-0.5000	-0.0617	-0.5422	-0.0553	-0.5188	-0.0891	-0.4633	-0.0237	-0.3529	-0.0370	-0.6369	-0.0645	
   145	-0.7871	-0.1391	-0.5735	-0.0102	-0.5345	-0.0665	-0.5856	-0.0655	-0.5366	-0.0999	-0.4978	-0.0285	-0.3874	-0.0419	-0.6636	-0.0806	
   146	-0.8128	-0.1385	-0.5913	-0.0209	-0.5434	-0.0719	-0.6280	-0.0590	-0.5789	-0.0934	-0.5490	-0.0274	-0.4131	-0.0413	-0.6981	-0.0854	
   147	-0.8217	-0.1439	-0.6091	-0.0316	-0.5690	-0.0714	-0.6536	-0.0585	-0.5878	-0.0988	-0.5579	-0.0328	-0.4220	-0.0467	-0.7148	-0.0795	
   148	-0.8295	-0.1326	-0.6091	-0.0316	-0.5601	-0.0660	-0.6447	-0.0531	-0.5889	-0.1154	-0.5501	-0.0441	-0.4220	-0.0467	-0.7060	-0.0741	
   149	-0.7950	-0.1278	-0.5913	-0.0209	-0.5256	-0.0612	-0.6102	-0.0483	-0.5889	-0.1154	-0.5579	-0.0328	-0.4131	-0.0413	-0.6714	-0.0693	
   150	-0.7348	-0.1235	-0.5568	-0.0161	-0.4822	-0.0510	-0.5412	-0.0386	-0.5800	-0.1101	-0.5401	-0.0220	-0.3707	-0.0478	-0.6280	-0.0591	
   151	-0.6914	-0.1133	-0.5056	-0.0171	-0.4387	-0.0408	-0.4888	-0.0231	-0.5622	-0.0993	-0.5056	-0.0172	-0.3362	-0.0429	-0.5757	-0.0435	
   152	-0.6647	-0.0972	-0.4789	-0.0010	-0.3875	-0.0418	-0.4287	-0.0188	-0.5198	-0.1058	-0.4633	-0.0237	-0.3184	-0.0322	-0.5156	-0.0392	
   153	-0.6135	-0.0983	-0.4443	 0.0038	-0.3530	-0.0370	-0.3686	-0.0145	-0.4942	-0.1063	-0.4288	-0.0188	-0.2761	-0.0386	-0.4722	-0.0290	
   154	-0.5879	-0.0988	-0.4020	-0.0026	-0.3107	-0.0435	-0.3419	 0.0016	-0.4931	-0.0897	-0.4110	-0.0081	-0.2750	-0.0220	-0.4377	-0.0242	
   155	-0.5790	-0.0934	-0.3764	-0.0032	-0.3018	-0.0381	-0.3074	 0.0065	-0.4842	-0.0843	-0.3932	 0.0027	-0.2494	-0.0225	-0.4031	-0.0194	
   156	-0.5701	-0.0881	-0.3675	 0.0022	-0.2929	-0.0327	-0.2985	 0.0118	-0.4675	-0.0902	-0.3764	-0.0033	-0.2405	-0.0172	-0.3775	-0.0199	
   157	-0.5612	-0.0827	-0.3586	 0.0076	-0.2761	-0.0386	-0.2729	 0.0113	-0.4675	-0.0902	-0.3675	 0.0021	-0.2238	-0.0231	-0.3686	-0.0145	
   158	-0.5445	-0.0886	-0.3497	 0.0129	-0.2840	-0.0273	-0.2561	 0.0054	-0.4675	-0.0902	-0.3675	 0.0021	-0.2149	-0.0177	-0.3519	-0.0204	
   159	-0.5445	-0.0886	-0.3497	 0.0129	-0.2761	-0.0386	-0.2561	 0.0054	-0.4764	-0.0956	-0.3597	-0.0092	-0.2149	-0.0177	-0.3519	-0.0204	
   160	-0.5701	-0.0881	-0.3586	 0.0076	-0.3096	-0.0268	-0.2896	 0.0172	-0.4853	-0.1009	-0.3932	 0.0027	-0.2149	-0.0177	-0.3686	-0.0145	
   161	-0.5701	-0.0881	-0.3586	 0.0076	-0.3018	-0.0381	-0.2818	 0.0059	-0.4942	-0.1063	-0.4188	 0.0032	-0.2238	-0.0231	-0.3775	-0.0199	
   162	-0.5790	-0.0934	-0.3675	 0.0022	-0.3185	-0.0322	-0.2907	 0.0006	-0.5031	-0.1117	-0.4199	-0.0135	-0.2238	-0.0231	-0.3942	-0.0140	
   163	-0.5790	-0.0934	-0.3842	 0.0081	-0.3274	-0.0376	-0.3241	 0.0124	-0.5198	-0.1058	-0.4366	-0.0075	-0.2316	-0.0118	-0.3864	-0.0253	
   164	-0.5790	-0.0934	-0.3764	-0.0032	-0.3274	-0.0376	-0.3163	 0.0011	-0.5287	-0.1111	-0.4533	-0.0016	-0.2238	-0.0231	-0.4031	-0.0194	
   165	-0.5868	-0.0821	-0.3931	 0.0027	-0.3274	-0.0376	-0.3163	 0.0011	-0.5376	-0.1165	-0.4622	-0.0070	-0.2238	-0.0231	-0.4031	-0.0194	
   166	-0.5868	-0.0821	-0.3931	 0.0027	-0.3274	-0.0376	-0.3330	 0.0070	-0.5711	-0.1047	-0.4622	-0.0070	-0.2405	-0.0172	-0.4199	-0.0135	
   167	-0.5868	-0.0821	-0.3931	 0.0027	-0.3441	-0.0316	-0.3419	 0.0016	-0.5800	-0.1101	-0.4711	-0.0124	-0.2405	-0.0172	-0.4288	-0.0188	
   168	-0.5957	-0.0875	-0.4098	 0.0086	-0.3363	-0.0429	-0.3586	 0.0076	-0.5889	-0.1154	-0.4878	-0.0065	-0.2405	-0.0172	-0.4455	-0.0129	
   169	-0.5957	-0.0875	-0.4187	 0.0033	-0.3530	-0.0370	-0.3675	 0.0022	-0.6145	-0.1149	-0.4967	-0.0118	-0.2661	-0.0166	-0.4544	-0.0183	
   170	-0.6213	-0.0870	-0.4354	 0.0092	-0.3619	-0.0424	-0.3853	-0.0086	-0.6401	-0.1144	-0.5390	-0.0054	-0.2750	-0.0220	-0.4722	-0.0290	
   171	-0.6302	-0.0923	-0.4532	-0.0016	-0.3875	-0.0418	-0.4109	-0.0080	-0.6490	-0.1197	-0.5479	-0.0108	-0.2917	-0.0161	-0.4978	-0.0285	
   172	-0.6558	-0.0918	-0.4789	-0.0010	-0.4131	-0.0413	-0.4365	-0.0075	-0.6579	-0.1251	-0.5825	-0.0156	-0.3095	-0.0268	-0.5323	-0.0333	
   173	-0.6814	-0.0913	-0.4967	-0.0118	-0.4387	-0.0408	-0.4711	-0.0123	-0.6668	-0.1305	-0.6081	-0.0151	-0.3351	-0.0263	-0.5579	-0.0328	
   174	-0.7238	-0.0848	-0.5390	-0.0053	-0.4565	-0.0515	-0.5056	-0.0171	-0.6924	-0.1299	-0.6426	-0.0199	-0.3440	-0.0316	-0.5924	-0.0376	
   175	-0.7416	-0.0956	-0.5735	-0.0102	-0.4822	-0.0510	-0.5401	-0.0220	-0.7180	-0.1294	-0.6771	-0.0247	-0.3697	-0.0311	-0.6269	-0.0424	
   176	-0.7672	-0.0950	-0.6080	-0.0150	-0.5000	-0.0617	-0.5835	-0.0322	-0.7525	-0.1342	-0.7205	-0.0349	-0.3953	-0.0306	-0.6615	-0.0473	
   177	-0.7850	-0.1058	-0.6258	-0.0257	-0.5256	-0.0612	-0.6180	-0.0370	-0.7871	-0.1391	-0.7550	-0.0398	-0.4209	-0.0300	-0.6960	-0.0521	
   178	-0.8184	-0.0940	-0.6682	-0.0193	-0.5512	-0.0606	-0.6525	-0.0418	-0.8216	-0.1439	-0.7895	-0.0446	-0.4465	-0.0295	-0.7138	-0.0629	
   179	-0.8273	-0.0993	-0.6860	-0.0300	-0.5690	-0.0714	-0.6870	-0.0467	-0.8394	-0.1546	-0.8319	-0.0381	-0.4643	-0.0402	-0.7483	-0.0677	
   180	-0.8362	-0.1047	-0.7116	-0.0295	-0.6113	-0.0649	-0.7216	-0.0515	-0.8650	-0.1541	-0.8664	-0.0430	-0.4899	-0.0397	-0.7828	-0.0725	
   181	-0.8540	-0.1154	-0.7461	-0.0343	-0.6291	-0.0757	-0.7561	-0.0563	-0.8995	-0.1589	-0.9009	-0.0478	-0.5077	-0.0504	-0.8173	-0.0773	
   182	-0.8874	-0.1036	-0.7884	-0.0279	-0.6547	-0.0751	-0.7739	-0.0671	-0.9251	-0.1584	-0.9354	-0.0526	-0.5333	-0.0499	-0.8518	-0.0822	
   183	-0.8963	-0.1090	-0.7973	-0.0332	-0.6714	-0.0692	-0.7995	-0.0665	-0.9429	-0.1691	-0.9532	-0.0634	-0.5589	-0.0494	-0.8774	-0.0816	
   184	-0.9042	-0.0977	-0.8062	-0.0386	-0.6547	-0.0751	-0.7906	-0.0612	-0.9429	-0.1691	-0.9532	-0.0634	-0.5422	-0.0553	-0.8607	-0.0875	
   185	-0.8529	-0.0988	-0.7884	-0.0279	-0.6280	-0.0590	-0.7561	-0.0563	-0.9429	-0.1691	-0.9276	-0.0639	-0.5333	-0.0499	-0.8340	-0.0714	
   186	-0.7928	-0.0945	-0.7372	-0.0289	-0.5679	-0.0547	-0.7038	-0.0408	-0.9173	-0.1697	-0.9098	-0.0532	-0.4988	-0.0451	-0.7906	-0.0612	
   187	-0.7572	-0.0730	-0.6860	-0.0300	-0.5167	-0.0558	-0.6514	-0.0252	-0.8995	-0.1589	-0.8586	-0.0543	-0.4565	-0.0515	-0.7216	-0.0516	
   188	-0.6971	-0.0687	-0.6504	-0.0085	-0.4733	-0.0456	-0.5824	-0.0155	-0.8739	-0.1595	-0.8319	-0.0381	-0.4298	-0.0354	-0.6526	-0.0419	
   189	-0.6537	-0.0585	-0.5991	-0.0096	-0.4298	-0.0354	-0.5223	-0.0112	-0.8483	-0.1600	-0.7974	-0.0333	-0.4042	-0.0359	-0.6091	-0.0317	
   190	-0.6192	-0.0537	-0.5646	-0.0048	-0.3953	-0.0306	-0.4789	-0.0010	-0.8315	-0.1659	-0.7550	-0.0398	-0.3864	-0.0252	-0.5657	-0.0215	
   191	-0.5846	-0.0489	-0.5301	 0.0001	-0.3530	-0.0370	-0.4444	 0.0038	-0.8226	-0.1605	-0.7294	-0.0403	-0.3608	-0.0257	-0.5479	-0.0108	
   192	-0.5590	-0.0494	-0.4956	 0.0049	-0.3352	-0.0263	-0.4098	 0.0086	-0.8226	-0.1605	-0.7038	-0.0408	-0.3440	-0.0316	-0.5223	-0.0113	
   193	-0.5334	-0.0499	-0.4700	 0.0043	-0.3263	-0.0209	-0.3842	 0.0081	-0.8138	-0.1552	-0.6949	-0.0355	-0.3351	-0.0263	-0.4967	-0.0118	
   194	-0.5156	-0.0392	-0.4443	 0.0038	-0.3007	-0.0214	-0.3664	 0.0188	-0.8049	-0.1498	-0.6782	-0.0414	-0.3262	-0.0209	-0.4878	-0.0065	
   195	-0.5156	-0.0392	-0.4522	 0.0151	-0.3007	-0.0214	-0.3664	 0.0188	-0.8138	-0.1552	-0.7116	-0.0296	-0.3262	-0.0209	-0.4878	-0.0065	
   196	-0.5156	-0.0392	-0.4443	 0.0038	-0.3007	-0.0214	-0.3753	 0.0135	-0.8138	-0.1552	-0.7116	-0.0296	-0.3262	-0.0209	-0.4878	-0.0065	
   197	-0.5323	-0.0333	-0.4611	 0.0097	-0.3174	-0.0155	-0.3920	 0.0194	-0.8138	-0.1552	-0.7116	-0.0296	-0.3262	-0.0209	-0.4967	-0.0118	
   198	-0.5323	-0.0333	-0.4611	 0.0097	-0.3174	-0.0155	-0.3842	 0.0081	-0.8226	-0.1605	-0.7116	-0.0296	-0.3262	-0.0209	-0.5045	-0.0006	
   199	-0.5245	-0.0446	-0.4611	 0.0097	-0.3096	-0.0268	-0.4009	 0.0140	-0.8394	-0.1546	-0.7116	-0.0296	-0.3262	-0.0209	-0.5045	-0.0006	
   200	-0.5323	-0.0333	-0.4611	 0.0097	-0.3096	-0.0268	-0.4177	 0.0199	-0.8572	-0.1654	-0.7372	-0.0290	-0.3262	-0.0209	-0.5134	-0.0059	
   201	-0.5156	-0.0392	-0.4689	 0.0210	-0.3174	-0.0155	-0.4098	 0.0086	-0.8661	-0.1707	-0.7205	-0.0349	-0.3262	-0.0209	-0.4967	-0.0118	
   202	-0.5234	-0.0279	-0.4689	 0.0210	-0.3174	-0.0155	-0.4098	 0.0086	-0.8828	-0.1648	-0.7450	-0.0177	-0.3430	-0.0150	-0.4967	-0.0118	
   203	-0.5234	-0.0279	-0.4689	 0.0210	-0.3263	-0.0209	-0.4098	 0.0086	-0.8828	-0.1648	-0.7450	-0.0177	-0.3430	-0.0150	-0.5134	-0.0059	
   204	-0.5234	-0.0279	-0.4689	 0.0210	-0.3263	-0.0209	-0.4187	 0.0033	-0.8828	-0.1648	-0.7372	-0.0290	-0.3351	-0.0263	-0.5301	-0.0000	
   205	-0.5234	-0.0279	-0.4778	 0.0156	-0.3430	-0.0150	-0.4444	 0.0038	-0.8995	-0.1589	-0.7539	-0.0231	-0.3519	-0.0204	-0.5390	-0.0054	
   206	-0.5234	-0.0279	-0.4945	 0.0215	-0.3519	-0.0204	-0.4611	 0.0097	-0.9251	-0.1584	-0.7796	-0.0226	-0.3608	-0.0257	-0.5736	-0.0102	
   207	-0.5323	-0.0333	-0.5201	 0.0221	-0.3686	-0.0145	-0.4622	-0.0069	-0.9351	-0.1804	-0.8230	-0.0328	-0.3775	-0.0198	-0.5914	-0.0210	
   208	-0.5579	-0.0327	-0.5457	 0.0226	-0.3775	-0.0198	-0.5045	-0.0005	-0.9696	-0.1852	-0.8486	-0.0322	-0.4031	-0.0193	-0.6337	-0.0145	
   209	-0.5836	-0.0322	-0.5468	 0.0060	-0.4031	-0.0193	-0.5223	-0.0112	-1.0041	-0.1901	-0.8831	-0.0371	-0.4287	-0.0188	-0.6515	-0.0253	
   210	-0.5925	-0.0376	-0.5803	 0.0178	-0.4288	-0.0188	-0.5568	-0.0161	-1.0297	-0.1895	-0.8920	-0.0424	-0.4376	-0.0241	-0.6771	-0.0247	
   211	-0.6014	-0.0429	-0.5891	 0.0124	-0.4377	-0.0241	-0.5824	-0.0155	-1.0386	-0.1949	-0.9009	-0.0478	-0.4632	-0.0236	-0.7027	-0.0242	
   212	-0.6348	-0.0311	-0.6148	 0.0129	-0.4633	-0.0236	-0.6080	-0.0150	-1.0643	-0.1944	-0.9265	-0.0473	-0.4721	-0.0290	-0.7205	-0.0349	
   213	-0.6437	-0.0365	-0.6237	 0.0076	-0.4889	-0.0230	-0.6425	-0.0198	-1.0899	-0.1938	-0.9276	-0.0639	-0.4899	-0.0397	-0.7550	-0.0398	
   214	-0.6693	-0.0360	-0.6493	 0.0081	-0.4978	-0.0284	-0.6603	-0.0306	-1.1077	-0.2046	-0.9699	-0.0575	-0.5155	-0.0392	-0.7895	-0.0446	
   215	-0.6949	-0.0354	-0.6916	 0.0146	-0.5234	-0.0279	-0.6949	-0.0354	-1.1422	-0.2094	-1.0212	-0.0564	-0.5333	-0.0499	-0.8408	-0.0435	
   216	-0.7294	-0.0403	-0.7094	 0.0038	-0.5412	-0.0386	-0.7294	-0.0402	-1.1678	-0.2088	-1.0390	-0.0671	-0.5589	-0.0494	-0.8675	-0.0596	
   217	-0.7472	-0.0510	-0.7350	 0.0044	-0.5668	-0.0381	-0.7639	-0.0451	-1.2023	-0.2137	-1.0735	-0.0720	-0.5846	-0.0488	-0.9020	-0.0645	
   218	-0.7729	-0.0505	-0.7695	-0.0005	-0.6013	-0.0429	-0.7984	-0.0499	-1.2112	-0.2190	-1.0991	-0.0714	-0.6024	-0.0596	-0.9365	-0.0693	
   219	-0.7817	-0.0558	-0.7952	 0.0001	-0.6181	-0.0370	-0.8240	-0.0494	-1.2368	-0.2185	-1.1247	-0.0709	-0.6191	-0.0537	-0.9621	-0.0688	
   220	-0.7729	-0.0505	-0.7952	 0.0001	-0.6181	-0.0370	-0.8240	-0.0494	-1.2457	-0.2239	-1.1336	-0.0763	-0.6280	-0.0590	-0.9621	-0.0688	
   221	-0.7551	-0.0397	-0.7863	 0.0054	-0.5924	-0.0375	-0.7817	-0.0558	-1.2368	-0.2185	-1.1080	-0.0768	-0.6191	-0.0537	-0.9276	-0.0639	
   222	-0.6949	-0.0354	-0.7517	 0.0103	-0.5490	-0.0273	-0.7461	-0.0343	-1.1945	-0.2250	-1.0813	-0.0607	-0.5846	-0.0488	-0.8920	-0.0424	
   223	-0.6426	-0.0199	-0.7005	 0.0092	-0.5056	-0.0171	-0.6860	-0.0300	-1.1767	-0.2142	-1.0379	-0.0505	-0.5500	-0.0440	-0.8230	-0.0328	
   224	-0.5736	-0.0102	-0.6404	 0.0135	-0.4544	-0.0182	-0.6169	-0.0204	-1.1422	-0.2094	-0.9945	-0.0403	-0.5155	-0.0392	-0.7461	-0.0344	
   225	-0.5302	 0.0000	-0.5891	 0.0124	-0.4031	-0.0193	-0.5735	-0.0102	-1.1077	-0.2046	-0.9343	-0.0360	-0.4810	-0.0343	-0.6938	-0.0188	
   226	-0.4868	 0.0102	-0.5625	 0.0285	-0.3686	-0.0145	-0.5301	 0.0000	-1.0988	-0.1992	-0.8998	-0.0312	-0.4632	-0.0236	-0.6593	-0.0140	
   227	-0.4522	 0.0150	-0.5279	 0.0333	-0.3508	-0.0037	-0.5034	 0.0161	-1.0899	-0.1938	-0.8653	-0.0263	-0.4376	-0.0241	-0.6248	-0.0092	
   228	-0.4177	 0.0199	-0.4934	 0.0382	-0.3252	-0.0043	-0.4611	 0.0097	-1.0643	-0.1944	-0.8475	-0.0156	-0.4120	-0.0247	-0.5814	 0.0010	
   229	-0.3832	 0.0247	-0.4678	 0.0376	-0.3163	 0.0011	-0.4433	 0.0204	-1.0554	-0.1890	-0.8219	-0.0161	-0.4031	-0.0193	-0.5558	 0.0005	
   230	-0.3654	 0.0354	-0.4500	 0.0484	-0.2996	-0.0048	-0.4177	 0.0199	-1.0465	-0.1836	-0.7963	-0.0167	-0.3864	-0.0252	-0.5380	 0.0112	
   231	-0.3487	 0.0295	-0.4333	 0.0425	-0.2996	-0.0048	-0.4177	 0.0199	-1.0376	-0.1782	-0.7707	-0.0172	-0.3942	-0.0139	-0.5291	 0.0166	
   232	-0.3398	 0.0349	-0.4333	 0.0425	-0.2996	-0.0048	-0.4344	 0.0258	-1.0297	-0.1895	-0.7707	-0.0172	-0.3942	-0.0139	-0.5291	 0.0166	
   233	-0.3398	 0.0349	-0.4333	 0.0425	-0.2996	-0.0048	-0.4433	 0.0204	-1.0465	-0.1836	-0.7874	-0.0113	-0.3942	-0.0139	-0.5212	 0.0053	
   234	-0.3309	 0.0403	-0.4333	 0.0425	-0.2996	-0.0048	-0.4433	 0.0204	-1.0554	-0.1890	-0.8041	-0.0054	-0.3942	-0.0139	-0.5380	 0.0112	
   235	-0.3309	 0.0403	-0.4333	 0.0425	-0.2996	-0.0048	-0.4522	 0.0151	-1.0643	-0.1944	-0.8130	-0.0108	-0.3942	-0.0139	-0.5469	 0.0059	
   236	-0.3220	 0.0456	-0.4333	 0.0425	-0.3074	 0.0065	-0.4522	 0.0151	-1.0643	-0.1944	-0.8130	-0.0108	-0.3942	-0.0139	-0.5469	 0.0059	
   237	-0.3220	 0.0456	-0.4411	 0.0537	-0.3074	 0.0065	-0.4522	 0.0151	-1.0732	-0.1997	-0.8297	-0.0049	-0.3942	-0.0139	-0.5558	 0.0005	
   238	-0.3298	 0.0569	-0.4411	 0.0537	-0.2907	 0.0006	-0.4522	 0.0151	-1.0899	-0.1938	-0.8386	-0.0102	-0.4109	-0.0080	-0.5725	 0.0064	
   239	-0.3298	 0.0569	-0.4411	 0.0537	-0.2985	 0.0118	-0.4611	 0.0097	-1.0821	-0.2051	-0.8219	-0.0161	-0.4109	-0.0080	-0.5814	 0.0010	
   240	-0.3298	 0.0569	-0.4411	 0.0537	-0.2985	 0.0118	-0.4778	 0.0156	-1.0988	-0.1992	-0.8386	-0.0102	-0.4109	-0.0080	-0.5903	-0.0043	
   241	-0.3387	 0.0516	-0.4578	 0.0597	-0.3074	 0.0065	-0.4867	 0.0102	-1.1077	-0.2046	-0.8475	-0.0156	-0.4198	-0.0134	-0.6237	 0.0075	
   242	-0.3476	 0.0462	-0.4500	 0.0484	-0.3241	 0.0124	-0.4956	 0.0049	-1.1244	-0.1986	-0.8642	-0.0097	-0.4287	-0.0188	-0.6415	-0.0033	
   243	-0.3565	 0.0408	-0.4667	 0.0543	-0.3241	 0.0124	-0.5123	 0.0108	-1.1333	-0.2040	-0.8899	-0.0092	-0.4454	-0.0129	-0.6671	-0.0027	
   244	-0.3821	 0.0413	-0.4834	 0.0602	-0.3330	 0.0070	-0.5301	 0.0000	-1.1500	-0.1981	-0.8820	-0.0204	-0.4376	-0.0241	-0.6849	-0.0135	
   245	-0.3910	 0.0360	-0.5002	 0.0661	-0.3498	 0.0129	-0.5557	 0.0006	-1.1589	-0.2035	-0.8909	-0.0258	-0.4710	-0.0123	-0.7273	-0.0070	
   246	-0.4166	 0.0365	-0.5180	 0.0554	-0.3754	 0.0135	-0.5813	 0.0011	-1.1678	-0.2088	-0.9165	-0.0253	-0.4799	-0.0177	-0.7451	-0.0177	
   247	-0.4344	 0.0258	-0.5347	 0.0613	-0.3843	 0.0081	-0.5991	-0.0096	-1.1934	-0.2083	-0.9589	-0.0188	-0.4888	-0.0231	-0.7963	-0.0167	
   248	-0.4601	 0.0263	-0.5603	 0.0618	-0.4099	 0.0086	-0.6248	-0.0091	-1.2023	-0.2137	-0.9511	-0.0301	-0.5145	-0.0225	-0.8141	-0.0274	
   249	-0.4857	 0.0269	-0.5859	 0.0623	-0.4188	 0.0033	-0.6593	-0.0139	-1.2190	-0.2078	-0.9845	-0.0183	-0.5234	-0.0279	-0.8564	-0.0210	
   250	-0.5202	 0.0220	-0.6037	 0.0516	-0.4444	 0.0038	-0.6771	-0.0247	-1.2446	-0.2072	-0.9856	-0.0349	-0.5323	-0.0333	-0.8742	-0.0317	
   251	-0.5369	 0.0279	-0.6126	 0.0462	-0.4700	 0.0043	-0.6949	-0.0354	-1.2535	-0.2126	-1.0023	-0.0290	-0.5657	-0.0214	-0.9087	-0.0365	
   252	-0.5547	 0.0172	-0.6382	 0.0468	-0.4956	 0.0049	-0.7372	-0.0290	-1.2703	-0.2067	-1.0357	-0.0172	-0.5746	-0.0268	-0.9098	-0.0532	
   253	-0.5803	 0.0177	-0.6638	 0.0473	-0.5134	-0.0059	-0.7717	-0.0338	-1.2870	-0.2008	-1.0190	-0.0231	-0.6002	-0.0263	-0.9354	-0.0526	
   254	-0.5970	 0.0236	-0.6895	 0.0478	-0.5391	-0.0053	-0.7895	-0.0445	-1.2870	-0.2008	-1.0268	-0.0118	-0.6169	-0.0204	-0.9521	-0.0467	
   255	-0.5970	 0.0236	-0.6984	 0.0425	-0.5647	-0.0048	-0.8151	-0.0440	-1.2959	-0.2062	-1.0268	-0.0118	-0.6258	-0.0257	-0.9521	-0.0467	
   256	-0.5714	 0.0231	-0.6895	 0.0478	-0.5480	-0.0107	-0.8062	-0.0386	-1.3037	-0.1949	-1.0090	-0.0011	-0.6169	-0.0204	-0.9254	-0.0306	
   257	-0.5358	 0.0446	-0.6549	 0.0527	-0.5223	-0.0112	-0.7628	-0.0284	-1.2781	-0.1954	-0.9745	 0.0037	-0.5913	-0.0209	-0.8653	-0.0263	
   258	-0.4668	 0.0542	-0.5948	 0.0570	-0.4711	-0.0123	-0.7105	-0.0128	-1.2436	-0.1906	-0.9222	 0.0193	-0.5657	-0.0214	-0.8041	-0.0054	
   259	-0.3978	 0.0639	-0.5514	 0.0672	-0.4277	-0.0021	-0.6504	-0.0086	-1.2091	-0.1858	-0.8710	 0.0182	-0.5312	-0.0166	-0.7273	-0.0070	
   260	-0.3455	 0.0795	-0.5002	 0.0661	-0.3932	 0.0027	-0.5981	 0.0070	-1.1745	-0.1809	-0.8443	 0.0343	-0.5056	-0.0171	-0.6917	 0.0145	
   261	-0.3020	 0.0897	-0.4657	 0.0709	-0.3587	 0.0076	-0.5557	 0.0006	-1.1400	-0.1761	-0.8019	 0.0279	-0.4878	-0.0064	-0.6404	 0.0134	
   262	-0.2586	 0.0999	-0.4400	 0.0704	-0.3330	 0.0070	-0.5379	 0.0113	-1.1144	-0.1766	-0.7674	 0.0327	-0.4621	-0.0069	-0.6059	 0.0182	
   263	-0.2241	 0.1047	-0.4222	 0.0811	-0.3074	 0.0065	-0.5201	 0.0221	-1.1144	-0.1766	-0.7496	 0.0435	-0.4443	 0.0038	-0.5714	 0.0231	
   264	-0.1896	 0.1095	-0.3966	 0.0806	-0.2818	 0.0059	-0.4945	 0.0215	-1.1144	-0.1766	-0.7318	 0.0542	-0.4187	 0.0033	-0.5369	 0.0279	
   265	-0.1551	 0.1144	-0.3621	 0.0854	-0.2807	 0.0226	-0.4778	 0.0156	-1.1311	-0.1707	-0.6973	 0.0590	-0.3931	 0.0027	-0.5113	 0.0274	
   266	-0.1206	 0.1192	-0.3276	 0.0903	-0.2551	 0.0220	-0.4522	 0.0151	-1.1400	-0.1761	-0.6806	 0.0531	-0.3931	 0.0027	-0.5024	 0.0327	
   267	-0.1284	 0.1305	-0.3187	 0.0956	-0.2551	 0.0220	-0.4433	 0.0204	-1.1244	-0.1986	-0.6639	 0.0472	-0.3931	 0.0027	-0.5191	 0.0386	
   268	-0.1117	 0.1246	-0.3098	 0.1010	-0.2551	 0.0220	-0.4433	 0.0204	-1.1500	-0.1981	-0.6895	 0.0478	-0.3931	 0.0027	-0.5280	 0.0333	
   269	-0.1284	 0.1305	-0.3009	 0.1064	-0.2629	 0.0333	-0.4511	 0.0317	-1.1500	-0.1981	-0.6817	 0.0365	-0.3931	 0.0027	-0.5369	 0.0279	
   270	-0.1206	 0.1192	-0.3009	 0.1064	-0.2462	 0.0274	-0.4511	 0.0317	-1.1500	-0.1981	-0.7073	 0.0370	-0.4098	 0.0086	-0.5625	 0.0284	
   271	-0.1373	 0.1251	-0.3087	 0.1176	-0.2629	 0.0333	-0.4600	 0.0263	-1.1578	-0.1868	-0.7162	 0.0317	-0.4020	-0.0027	-0.5792	 0.0343	
   272	-0.1462	 0.1197	-0.3087	 0.1176	-0.2629	 0.0333	-0.4600	 0.0263	-1.1322	-0.1874	-0.7162	 0.0317	-0.4187	 0.0033	-0.5881	 0.0290	
   273	-0.1629	 0.1256	-0.3087	 0.1176	-0.2708	 0.0446	-0.4600	 0.0263	-1.1233	-0.1820	-0.7329	 0.0376	-0.4187	 0.0033	-0.5803	 0.0177	
   274	-0.1718	 0.1203	-0.3254	 0.1235	-0.2629	 0.0333	-0.4600	 0.0263	-1.1055	-0.1713	-0.7329	 0.0376	-0.4109	-0.0080	-0.5970	 0.0236	
   275	-0.1807	 0.1149	-0.3254	 0.1235	-0.2629	 0.0333	-0.4856	 0.0269	-1.0966	-0.1659	-0.7173	 0.0150	-0.4276	-0.0021	-0.6059	 0.0182	
   276	-0.2063	 0.1154	-0.3511	 0.1241	-0.2797	 0.0392	-0.4945	 0.0215	-1.1044	-0.1546	-0.7340	 0.0209	-0.4443	 0.0038	-0.6226	 0.0241	
   277	-0.2152	 0.1101	-0.3600	 0.1187	-0.2885	 0.0339	-0.5201	 0.0221	-1.1044	-0.1546	-0.7418	 0.0322	-0.4443	 0.0038	-0.6394	 0.0300	
   278	-0.2241	 0.1047	-0.3688	 0.1133	-0.3142	 0.0344	-0.5457	 0.0226	-1.0955	-0.1492	-0.7496	 0.0435	-0.4443	 0.0038	-0.6315	 0.0188	
   279	-0.2408	 0.1106	-0.3777	 0.1080	-0.3231	 0.0290	-0.5635	 0.0119	-1.0955	-0.1492	-0.7496	 0.0435	-0.4443	 0.0038	-0.6482	 0.0247	
   280	-0.2408	 0.1106	-0.3945	 0.1139	-0.3487	 0.0296	-0.5892	 0.0124	-1.1123	-0.1433	-0.7575	 0.0547	-0.4611	 0.0097	-0.6571	 0.0193	
   281	-0.2408	 0.1106	-0.4201	 0.1144	-0.3665	 0.0188	-0.6070	 0.0017	-1.1123	-0.1433	-0.7575	 0.0547	-0.4700	 0.0043	-0.6660	 0.0139	
   282	-0.2576	 0.1165	-0.4379	 0.1037	-0.3921	 0.0194	-0.6326	 0.0022	-1.1123	-0.1433	-0.7653	 0.0660	-0.4700	 0.0043	-0.6749	 0.0086	
   283	-0.2665	 0.1112	-0.4802	 0.1101	-0.4099	 0.0086	-0.6593	-0.0139	-1.1290	-0.1374	-0.7653	 0.0660	-0.4867	 0.0102	-0.6917	 0.0145	
   284	-0.2832	 0.1171	-0.4813	 0.0935	-0.4444	 0.0038	-0.6938	-0.0188	-1.1546	-0.1369	-0.7731	 0.0773	-0.5034	 0.0161	-0.7006	 0.0091	
   285	-0.2832	 0.1171	-0.4902	 0.0881	-0.4622	-0.0069	-0.7194	-0.0182	-1.1802	-0.1364	-0.7731	 0.0773	-0.5123	 0.0108	-0.7173	 0.0150	
   286	-0.2999	 0.1230	-0.5158	 0.0886	-0.4800	-0.0177	-0.7539	-0.0230	-1.2058	-0.1358	-0.7898	 0.0832	-0.5379	 0.0113	-0.7173	 0.0150	
   287	-0.2999	 0.1230	-0.5247	 0.0833	-0.5223	-0.0112	-0.7795	-0.0225	-1.2236	-0.1466	-0.7898	 0.0832	-0.5468	 0.0059	-0.7340	 0.0209	
   288	-0.3077	 0.1342	-0.5414	 0.0892	-0.5401	-0.0220	-0.8140	-0.0273	-1.2492	-0.1460	-0.8154	 0.0837	-0.5646	-0.0048	-0.7340	 0.0209	
   289	-0.3077	 0.1342	-0.5414	 0.0892	-0.5657	-0.0214	-0.8229	-0.0327	-1.2581	-0.1514	-0.8321	 0.0896	-0.5902	-0.0043	-0.7507	 0.0268	
   290	-0.2988	 0.1396	-0.5581	 0.0951	-0.5746	-0.0268	-0.8397	-0.0268	-1.2581	-0.1514	-0.8321	 0.0896	-0.5902	-0.0043	-0.7507	 0.0268	
   291	-0.2554	 0.1498	-0.5158	 0.0886	-0.5490	-0.0273	-0.7973	-0.0332	-1.2660	-0.1401	-0.8065	 0.0891	-0.5902	-0.0043	-0.7329	 0.0376	
   292	-0.2120	 0.1600	-0.4813	 0.0935	-0.5145	-0.0225	-0.7706	-0.0171	-1.2403	-0.1407	-0.7809	 0.0886	-0.5646	-0.0048	-0.6895	 0.0478	
   293	-0.1430	 0.1697	-0.4457	 0.1150	-0.4544	-0.0182	-0.7183	-0.0016	-1.1980	-0.1471	-0.7631	 0.0993	-0.5301	 0.0000	-0.6461	 0.0580	
   294	-0.0739	 0.1793	-0.3856	 0.1193	-0.4021	-0.0026	-0.6493	 0.0081	-1.1635	-0.1423	-0.7286	 0.1041	-0.4956	 0.0049	-0.5860	 0.0623	
   295	-0.0216	 0.1949	-0.3254	 0.1235	-0.3587	 0.0076	-0.5892	 0.0124	-1.1468	-0.1482	-0.6863	 0.0977	-0.4611	 0.0097	-0.5425	 0.0725	
   296	 0.0296	 0.1938	-0.2731	 0.1391	-0.3152	 0.0178	-0.5290	 0.0167	-1.1212	-0.1487	-0.6518	 0.1025	-0.4266	 0.0145	-0.4913	 0.0714	
   297	 0.0641	 0.1987	-0.2297	 0.1493	-0.2718	 0.0280	-0.5023	 0.0328	-1.0955	-0.1492	-0.6172	 0.1074	-0.4009	 0.0140	-0.4479	 0.0816	
   298	 0.0986	 0.2035	-0.1863	 0.1595	-0.2373	 0.0328	-0.4589	 0.0430	-1.0610	-0.1444	-0.5827	 0.1122	-0.3831	 0.0247	-0.4134	 0.0864	
   299	 0.1164	 0.2142	-0.1429	 0.1697	-0.2028	 0.0376	-0.4077	 0.0419	-1.0265	-0.1396	-0.5404	 0.1057	-0.3575	 0.0242	-0.3789	 0.0912	
   300	 0.1332	 0.2083	-0.1084	 0.1746	-0.1772	 0.0371	-0.3899	 0.0527	-0.9998	-0.1235	-0.5059	 0.1106	-0.3319	 0.0237	-0.3700	 0.0966	
   301	 0.1499	 0.2024	-0.0906	 0.1853	-0.1594	 0.0478	-0.3810	 0.0580	-0.9653	-0.1186	-0.4970	 0.1160	-0.3063	 0.0231	-0.3533	 0.0907	
   302	 0.1243	 0.2030	-0.0906	 0.1853	-0.1594	 0.0478	-0.3643	 0.0521	-0.9475	-0.1079	-0.4970	 0.1160	-0.2974	 0.0285	-0.3543	 0.0741	
   303	 0.1154	 0.1976	-0.0995	 0.1799	-0.1672	 0.0591	-0.3732	 0.0467	-0.9386	-0.1025	-0.5059	 0.1106	-0.3052	 0.0398	-0.3888	 0.0692	
   304	 0.0809	 0.1928	-0.1162	 0.1858	-0.1672	 0.0591	-0.3899	 0.0527	-0.9386	-0.1025	-0.5315	 0.1111	-0.2885	 0.0339	-0.4145	 0.0698	
   305	 0.0720	 0.1874	-0.1251	 0.1805	-0.1672	 0.0591	-0.3988	 0.0473	-0.9464	-0.0913	-0.5315	 0.1111	-0.2796	 0.0392	-0.4155	 0.0531	
   306	 0.0463	 0.1879	-0.1418	 0.1864	-0.1672	 0.0591	-0.3988	 0.0473	-0.9297	-0.0972	-0.4981	 0.0993	-0.2707	 0.0446	-0.4323	 0.0590	
   307	 0.0374	 0.1826	-0.1418	 0.1864	-0.1672	 0.0591	-0.4155	 0.0532	-0.9375	-0.0859	-0.4970	 0.1160	-0.2451	 0.0441	-0.4244	 0.0478	
   308	 0.0118	 0.1831	-0.1418	 0.1864	-0.1672	 0.0591	-0.4155	 0.0532	-0.9208	-0.0918	-0.4803	 0.1100	-0.2529	 0.0553	-0.4412	 0.0537	
   309	 0.0029	 0.1777	-0.1418	 0.1864	-0.1672	 0.0591	-0.4155	 0.0532	-0.9041	-0.0977	-0.4714	 0.1154	-0.2440	 0.0607	-0.4412	 0.0537	
   310	-0.0060	 0.1724	-0.1585	 0.1923	-0.1839	 0.0650	-0.4077	 0.0419	-0.9119	-0.0864	-0.4714	 0.1154	-0.2440	 0.0607	-0.4579	 0.0596	
   311	-0.0405	 0.1675	-0.1674	 0.1869	-0.1928	 0.0596	-0.4244	 0.0478	-0.9030	-0.0811	-0.4881	 0.1213	-0.2440	 0.0607	-0.4668	 0.0542	
   312	-0.0661	 0.1681	-0.1852	 0.1762	-0.2106	 0.0489	-0.4422	 0.0371	-0.9108	-0.0698	-0.5048	 0.1272	-0.2518	 0.0720	-0.4757	 0.0488	
   313	-0.1006	 0.1632	-0.2276	 0.1826	-0.2362	 0.0494	-0.4678	 0.0376	-0.9019	-0.0644	-0.5137	 0.1219	-0.2607	 0.0666	-0.5013	 0.0494	
   314	-0.1184	 0.1525	-0.2454	 0.1719	-0.2619	 0.0500	-0.4934	 0.0382	-0.9019	-0.0644	-0.5471	 0.1337	-0.2774	 0.0725	-0.5358	 0.0445	
   315	-0.1529	 0.1477	-0.2799	 0.1670	-0.2797	 0.0392	-0.5112	 0.0274	-0.9019	-0.0644	-0.5649	 0.1229	-0.2942	 0.0784	-0.5536	 0.0338	
   316	-0.1874	 0.1428	-0.3144	 0.1622	-0.2974	 0.0285	-0.5625	 0.0285	-0.9186	-0.0585	-0.5905	 0.1235	-0.3031	 0.0731	-0.5959	 0.0402	
   317	-0.2220	 0.1380	-0.3578	 0.1520	-0.3320	 0.0237	-0.5970	 0.0237	-0.9364	-0.0692	-0.6329	 0.1299	-0.3120	 0.0677	-0.6137	 0.0295	
   318	-0.2565	 0.1332	-0.3923	 0.1472	-0.3743	 0.0301	-0.6315	 0.0188	-0.9621	-0.0687	-0.6507	 0.1192	-0.3376	 0.0682	-0.6394	 0.0300	
   319	-0.2821	 0.1337	-0.4101	 0.1364	-0.3921	 0.0194	-0.6660	 0.0140	-1.0044	-0.0623	-0.6763	 0.1197	-0.3632	 0.0688	-0.6482	 0.0247	
   320	-0.2999	 0.1230	-0.4357	 0.1370	-0.4099	 0.0086	-0.7005	 0.0092	-1.0222	-0.0730	-0.7019	 0.1203	-0.3888	 0.0693	-0.6817	 0.0365	
   321	-0.3255	 0.1235	-0.4613	 0.1375	-0.4522	 0.0151	-0.7183	-0.0016	-1.0478	-0.0725	-0.7108	 0.1149	-0.4066	 0.0586	-0.6906	 0.0311	
   322	-0.3344	 0.1181	-0.4791	 0.1268	-0.4700	 0.0043	-0.7528	-0.0064	-1.0645	-0.0666	-0.7275	 0.1208	-0.4322	 0.0591	-0.6906	 0.0311	
   323	-0.3511	 0.1240	-0.4880	 0.1214	-0.4878	-0.0064	-0.7785	-0.0059	-1.0567	-0.0778	-0.7275	 0.1208	-0.4411	 0.0537	-0.7073	 0.0370	
   324	-0.3600	 0.1187	-0.4969	 0.1160	-0.5134	-0.0059	-0.7962	-0.0166	-1.0734	-0.0719	-0.7364	 0.1154	-0.4589	 0.0430	-0.7073	 0.0370	
   325	-0.3767	 0.1246	-0.5225	 0.1166	-0.5480	-0.0107	-0.8308	-0.0214	-1.0734	-0.0719	-0.7364	 0.1154	-0.4678	 0.0376	-0.7240	 0.0429	
   326	-0.3856	 0.1192	-0.5314	 0.1112	-0.5736	-0.0102	-0.8564	-0.0209	-1.0901	-0.0660	-0.7531	 0.1213	-0.4934	 0.0382	-0.7329	 0.0376	
   327	-0.3856	 0.1192	-0.5482	 0.1171	-0.5825	-0.0155	-0.8653	-0.0263	-1.0901	-0.0660	-0.7531	 0.1213	-0.5023	 0.0328	-0.7162	 0.0317	
   328	-0.3767	 0.1246	-0.5314	 0.1112	-0.5657	-0.0214	-0.8564	-0.0209	-1.0812	-0.0607	-0.7275	 0.1208	-0.4934	 0.0382	-0.7062	 0.0537	
   329	-0.3333	 0.1348	-0.4969	 0.1160	-0.5391	-0.0053	-0.8219	-0.0161	-1.0723	-0.0553	-0.7097	 0.1315	-0.4756	 0.0489	-0.6461	 0.0580	
   330	-0.2810	 0.1503	-0.4613	 0.1375	-0.4878	-0.0064	-0.7696	-0.0005	-1.0300	-0.0617	-0.6407	 0.1412	-0.4411	 0.0537	-0.5682	 0.0730	
   331	-0.2120	 0.1600	-0.3845	 0.1359	-0.4277	-0.0021	-0.7005	 0.0092	-0.9866	-0.0515	-0.5628	 0.1562	-0.3899	 0.0527	-0.4813	 0.0934	
   332	-0.1262	 0.1638	-0.3066	 0.1509	-0.3843	 0.0081	-0.6482	 0.0247	-0.9521	-0.0467	-0.4937	 0.1659	-0.3465	 0.0629	-0.4034	 0.1084	
   333	-0.0661	 0.1681	-0.2542	 0.1665	-0.3241	 0.0124	-0.5792	 0.0344	-0.9087	-0.0365	-0.4336	 0.1702	-0.3120	 0.0677	-0.3511	 0.1240	
   334	-0.0227	 0.1783	-0.1941	 0.1708	-0.2896	 0.0172	-0.5279	 0.0333	-0.8574	-0.0376	-0.3735	 0.1745	-0.2774	 0.0725	-0.2910	 0.1283	
   335	 0.0118	 0.1831	-0.1507	 0.1810	-0.2551	 0.0220	-0.4934	 0.0382	-0.8229	-0.0327	-0.3301	 0.1847	-0.2429	 0.0773	-0.2397	 0.1272	
   336	 0.0296	 0.1938	-0.1162	 0.1858	-0.2373	 0.0328	-0.4589	 0.0430	-0.7884	-0.0279	-0.2867	 0.1949	-0.2251	 0.0881	-0.2052	 0.1321	
   337	 0.0552	 0.1933	-0.0817	 0.1907	-0.2117	 0.0323	-0.4244	 0.0478	-0.7706	-0.0172	-0.2521	 0.1997	-0.1828	 0.0816	-0.1796	 0.1315	
   338	 0.0641	 0.1987	-0.0472	 0.1955	-0.1939	 0.0430	-0.4066	 0.0586	-0.7372	-0.0290	-0.2432	 0.2051	-0.1650	 0.0924	-0.1540	 0.1310	
   339	 0.0641	 0.1987	-0.0383	 0.2009	-0.1772	 0.0371	-0.3899	 0.0527	-0.7361	-0.0123	-0.2087	 0.2099	-0.1394	 0.0918	-0.1451	 0.1363	
   340	 0.0552	 0.1933	-0.0294	 0.2062	-0.1772	 0.0371	-0.3899	 0.0527	-0.7194	-0.0182	-0.2087	 0.2099	-0.1394	 0.0918	-0.1362	 0.1417	
   341	 0.0463	 0.1879	-0.0205	 0.2116	-0.1772	 0.0371	-0.3810	 0.0580	-0.7105	-0.0129	-0.1998	 0.2153	-0.1305	 0.0972	-0.1362	 0.1417	
   342	 0.0463	 0.1879	-0.0037	 0.2057	-0.1683	 0.0425	-0.3810	 0.0580	-0.7016	-0.0075	-0.1998	 0.2153	-0.1216	 0.1026	-0.1362	 0.1417	
   343	 0.0374	 0.1826	-0.0116	 0.2170	-0.1683	 0.0425	-0.3721	 0.0634	-0.6916	 0.0145	-0.1831	 0.2094	-0.1127	 0.1080	-0.1362	 0.1417	
   344	 0.0285	 0.1772	-0.0116	 0.2170	-0.1683	 0.0425	-0.3721	 0.0634	-0.6571	 0.0193	-0.1909	 0.2206	-0.1038	 0.1133	-0.1362	 0.1417	
   345	 0.0118	 0.1831	-0.0037	 0.2057	-0.1683	 0.0425	-0.3721	 0.0634	-0.6482	 0.0247	-0.2076	 0.2266	-0.1038	 0.1133	-0.1451	 0.1363	
   346	 0.0029	 0.1777	-0.0205	 0.2116	-0.1683	 0.0425	-0.3721	 0.0634	-0.6226	 0.0242	-0.2076	 0.2266	-0.0949	 0.1187	-0.1540	 0.1310	
   347	-0.0149	 0.1670	-0.0294	 0.2062	-0.1683	 0.0425	-0.3888	 0.0693	-0.6304	 0.0355	-0.2165	 0.2212	-0.0860	 0.1241	-0.1629	 0.1256	
   348	-0.0405	 0.1675	-0.0383	 0.2009	-0.1850	 0.0484	-0.3977	 0.0639	-0.6304	 0.0355	-0.2165	 0.2212	-0.0860	 0.1241	-0.1885	 0.1261	
   349	-0.0583	 0.1568	-0.0639	 0.2014	-0.1939	 0.0430	-0.4066	 0.0586	-0.6226	 0.0242	-0.2333	 0.2271	-0.0771	 0.1294	-0.1974	 0.1208	
   350	-0.1006	 0.1632	-0.0895	 0.2019	-0.2106	 0.0489	-0.4322	 0.0591	-0.6226	 0.0242	-0.2589	 0.2276	-0.0771	 0.1294	-0.2152	 0.1100	
   351	-0.1184	 0.1525	-0.0984	 0.1966	-0.2195	 0.0435	-0.4411	 0.0537	-0.6560	 0.0360	-0.2678	 0.2223	-0.0771	 0.1294	-0.2408	 0.1106	
   352	-0.1362	 0.1418	-0.1329	 0.1917	-0.2451	 0.0441	-0.4756	 0.0489	-0.6482	 0.0247	-0.2934	 0.2228	-0.0938	 0.1353	-0.2586	 0.0998	
   353	-0.1785	 0.1482	-0.1585	 0.1923	-0.2629	 0.0333	-0.5013	 0.0494	-0.6649	 0.0306	-0.3023	 0.2174	-0.0938	 0.1353	-0.2842	 0.1004	
   354	-0.1963	 0.1375	-0.1763	 0.1815	-0.2885	 0.0339	-0.5190	 0.0387	-0.6816	 0.0365	-0.3190	 0.2233	-0.1027	 0.1300	-0.3098	 0.1009	
   355	-0.2220	 0.1380	-0.2187	 0.1880	-0.3063	 0.0231	-0.5447	 0.0392	-0.6816	 0.0365	-0.3279	 0.2180	-0.1283	 0.1305	-0.3355	 0.1014	
   356	-0.2565	 0.1332	-0.2365	 0.1772	-0.3320	 0.0237	-0.5792	 0.0344	-0.6905	 0.0312	-0.3535	 0.2185	-0.1372	 0.1251	-0.3700	 0.0966	
   357	-0.2910	 0.1283	-0.2710	 0.1724	-0.3665	 0.0188	-0.5970	 0.0237	-0.7072	 0.0371	-0.3880	 0.2137	-0.1539	 0.1310	-0.3878	 0.0859	
   358	-0.3088	 0.1176	-0.2888	 0.1617	-0.3843	 0.0081	-0.6315	 0.0188	-0.7250	 0.0263	-0.4058	 0.2029	-0.1717	 0.1203	-0.4223	 0.0810	
   359	-0.3433	 0.1128	-0.3400	 0.1627	-0.4099	 0.0086	-0.6660	 0.0140	-0.7596	 0.0215	-0.4325	 0.1868	-0.1974	 0.1208	-0.4646	 0.0875	
   360	-0.3778	 0.1079	-0.3578	 0.1520	-0.4444	 0.0038	-0.7005	 0.0092	-0.7852	 0.0220	-0.4670	 0.1820	-0.2063	 0.1155	-0.4824	 0.0768	
   361	-0.3956	 0.0972	-0.3923	 0.1472	-0.4622	-0.0069	-0.7350	 0.0043	-0.8197	 0.0172	-0.5183	 0.1831	-0.2408	 0.1106	-0.5080	 0.0773	
   362	-0.4212	 0.0977	-0.4101	 0.1364	-0.5045	-0.0005	-0.7696	-0.0005	-0.8197	 0.0172	-0.5183	 0.1831	-0.2742	 0.1225	-0.5080	 0.0773	
   363	-0.4212	 0.0977	-0.4268	 0.1423	-0.4967	-0.0118	-0.7696	-0.0005	-0.8197	 0.0172	-0.4927	 0.1825	-0.2664	 0.1112	-0.4902	 0.0880	
   364	-0.4034	 0.1085	-0.4012	 0.1418	-0.4878	-0.0064	-0.7518	 0.0102	-0.8019	 0.0279	-0.4581	 0.1874	-0.2497	 0.1053	-0.4379	 0.1036	
   365	-0.3266	 0.1069	-0.3411	 0.1461	-0.4533	-0.0016	-0.7083	 0.0204	-0.7585	 0.0381	-0.4226	 0.2088	-0.2319	 0.1160	-0.3689	 0.1133	
   366	-0.2576	 0.1165	-0.2888	 0.1617	-0.3932	 0.0027	-0.6226	 0.0242	-0.7151	 0.0483	-0.3457	 0.2072	-0.1895	 0.1096	-0.2910	 0.1283	
   367	-0.1885	 0.1262	-0.2197	 0.1713	-0.3419	 0.0016	-0.5703	 0.0398	-0.6638	 0.0473	-0.3101	 0.2287	-0.1550	 0.1144	-0.1963	 0.1374	
   368	-0.1362	 0.1418	-0.1596	 0.1756	-0.2985	 0.0118	-0.5102	 0.0441	-0.6037	 0.0516	-0.2333	 0.2271	-0.1116	 0.1246	-0.1351	 0.1584	
   369	-0.0761	 0.1460	-0.0995	 0.1799	-0.2473	 0.0108	-0.4500	 0.0484	-0.5603	 0.0618	-0.1810	 0.2427	-0.0771	 0.1294	-0.0661	 0.1680	
   370	-0.0327	 0.1562	-0.0561	 0.1901	-0.2217	 0.0102	-0.4155	 0.0532	-0.5169	 0.0720	-0.1119	 0.2523	-0.0259	 0.1284	 0.0029	 0.1777	
   371	 0.0107	 0.1665	 0.0119	 0.1831	-0.1872	 0.0151	-0.3643	 0.0521	-0.4824	 0.0768	-0.0596	 0.2679	 0.0087	 0.1332	 0.0631	 0.1820	
   372	 0.0620	 0.1654	 0.0553	 0.1933	-0.1526	 0.0199	-0.3298	 0.0570	-0.4567	 0.0763	-0.0162	 0.2781	 0.0599	 0.1321	 0.1065	 0.1922	
   373	 0.0798	 0.1761	 0.0820	 0.2094	-0.1348	 0.0306	-0.2952	 0.0618	-0.4489	 0.0650	 0.0183	 0.2829	 0.0777	 0.1429	 0.1488	 0.1857	
   374	 0.1143	 0.1809	 0.1332	 0.2084	-0.0925	 0.0242	-0.2774	 0.0725	-0.4667	 0.0542	 0.0350	 0.2770	 0.0955	 0.1536	 0.1499	 0.2024	
   375	 0.1310	 0.1750	 0.1510	 0.2191	-0.0836	 0.0296	-0.2518	 0.0720	-0.4756	 0.0489	 0.0607	 0.2765	 0.1122	 0.1477	 0.1588	 0.2078	
   376	 0.1399	 0.1804	 0.1766	 0.2186	-0.0747	 0.0349	-0.2518	 0.0720	-0.4756	 0.0489	 0.0785	 0.2872	 0.1211	 0.1531	 0.1755	 0.2018	
   377	 0.1488	 0.1858	 0.1944	 0.2293	-0.0747	 0.0349	-0.2429	 0.0774	-0.4578	 0.0596	 0.0962	 0.2980	 0.1300	 0.1584	 0.2011	 0.2013	
   378	 0.1577	 0.1911	 0.2201	 0.2288	-0.0580	 0.0290	-0.2340	 0.0827	-0.4311	 0.0757	 0.1397	 0.3082	 0.1556	 0.1579	 0.2189	 0.2120	
   379	 0.1577	 0.1911	 0.2379	 0.2395	-0.0580	 0.0290	-0.2173	 0.0768	-0.3877	 0.0859	 0.1496	 0.3302	 0.1645	 0.1633	 0.2278	 0.2174	
   380	 0.1744	 0.1852	 0.2468	 0.2449	-0.0658	 0.0403	-0.1917	 0.0763	-0.3621	 0.0854	 0.1674	 0.3409	 0.1901	 0.1627	 0.2446	 0.2115	
   381	 0.1410	 0.1971	 0.2635	 0.2390	-0.0658	 0.0403	-0.1995	 0.0876	-0.3610	 0.1020	 0.2098	 0.3345	 0.1990	 0.1681	 0.2446	 0.2115	
   382	 0.1321	 0.1917	 0.2557	 0.2503	-0.0658	 0.0403	-0.1828	 0.0816	-0.3610	 0.1020	 0.2098	 0.3345	 0.1990	 0.1681	 0.2446	 0.2115	
   383	 0.1232	 0.1863	 0.2557	 0.2503	-0.0747	 0.0349	-0.1828	 0.0816	-0.3443	 0.0961	 0.2098	 0.3345	 0.1990	 0.1681	 0.2367	 0.2228	
   384	 0.1143	 0.1809	 0.2478	 0.2615	-0.0914	 0.0408	-0.1828	 0.0816	-0.3354	 0.1015	 0.2098	 0.3345	 0.1990	 0.1681	 0.2456	 0.2282	
   385	 0.1054	 0.1756	 0.2646	 0.2556	-0.1003	 0.0355	-0.1995	 0.0876	-0.3176	 0.1122	 0.2176	 0.3232	 0.1901	 0.1627	 0.2545	 0.2335	
   386	 0.0965	 0.1702	 0.2478	 0.2615	-0.1181	 0.0247	-0.2084	 0.0822	-0.3076	 0.1342	 0.2265	 0.3286	 0.1901	 0.1627	 0.2712	 0.2276	
   387	 0.0798	 0.1761	 0.2557	 0.2503	-0.1270	 0.0194	-0.2340	 0.0827	-0.2898	 0.1450	 0.2265	 0.3286	 0.1901	 0.1627	 0.2545	 0.2335	
   388	 0.0798	 0.1761	 0.2468	 0.2449	-0.1526	 0.0199	-0.2596	 0.0833	-0.2731	 0.1391	 0.2265	 0.3286	 0.1823	 0.1740	 0.2456	 0.2282	
   389	 0.0542	 0.1767	 0.2290	 0.2341	-0.1615	 0.0145	-0.2774	 0.0725	-0.2898	 0.1450	 0.2187	 0.3398	 0.1823	 0.1740	 0.2200	 0.2287	
   390	 0.0620	 0.1654	 0.2033	 0.2347	-0.1872	 0.0151	-0.3120	 0.0677	-0.3154	 0.1455	 0.2019	 0.3458	 0.1745	 0.1853	 0.1933	 0.2126	
   391	 0.0364	 0.1659	 0.1688	 0.2299	-0.2128	 0.0156	-0.3298	 0.0570	-0.3332	 0.1348	 0.1596	 0.3522	 0.1745	 0.1853	 0.1499	 0.2024	
   392	 0.0107	 0.1665	 0.1343	 0.2250	-0.2384	 0.0161	-0.3565	 0.0408	-0.3678	 0.1300	 0.1507	 0.3468	 0.1745	 0.1853	 0.1065	 0.1922	
   393	-0.0149	 0.1670	 0.0998	 0.2202	-0.2395	-0.0005	-0.3988	 0.0473	-0.3945	 0.1138	 0.1162	 0.3420	 0.1578	 0.1912	 0.0631	 0.1820	
   394	-0.0327	 0.1562	 0.0653	 0.2154	-0.2651	 0.0000	-0.4166	 0.0365	-0.4211	 0.0977	 0.0817	 0.3372	 0.1489	 0.1858	 0.0197	 0.1718	
   395	-0.0750	 0.1627	 0.0308	 0.2105	-0.2907	 0.0006	-0.4344	 0.0258	-0.4389	 0.0870	 0.0561	 0.3377	 0.1489	 0.1858	-0.0237	 0.1616	
   396	-0.1095	 0.1579	-0.0037	 0.2057	-0.3163	 0.0011	-0.4600	 0.0263	-0.4724	 0.0988	 0.0137	 0.3441	 0.1233	 0.1863	-0.0593	 0.1401	
   397	-0.1529	 0.1477	-0.0383	 0.2009	-0.3508	-0.0037	-0.4945	 0.0215	-0.4735	 0.0822	-0.0041	 0.3334	 0.1144	 0.1810	-0.1195	 0.1358	
   398	-0.1963	 0.1375	-0.0817	 0.1907	-0.3854	-0.0086	-0.5290	 0.0167	-0.4991	 0.0827	-0.0308	 0.3173	 0.0887	 0.1815	-0.1718	 0.1202	
   399	-0.2565	 0.1332	-0.1496	 0.1976	-0.4199	-0.0134	-0.5724	 0.0065	-0.5247	 0.0832	-0.0909	 0.3130	 0.0542	 0.1767	-0.2241	 0.1047	
   400	-0.2999	 0.1230	-0.2098	 0.1933	-0.4544	-0.0182	-0.6070	 0.0017	-0.5336	 0.0779	-0.1254	 0.3082	 0.0286	 0.1772	-0.2675	 0.0945	
   401	-0.3266	 0.1069	-0.2443	 0.1885	-0.4633	-0.0236	-0.6237	 0.0076	-0.5336	 0.0779	-0.1688	 0.2980	 0.0197	 0.1718	-0.3020	 0.0896	
   402	-0.3522	 0.1074	-0.2532	 0.1831	-0.4711	-0.0123	-0.6148	 0.0129	-0.5247	 0.0832	-0.1866	 0.2872	 0.0108	 0.1665	-0.3020	 0.0896	
   403	-0.3266	 0.1069	-0.2532	 0.1831	-0.4288	-0.0188	-0.5714	 0.0231	-0.5069	 0.0940	-0.1699	 0.2813	 0.0197	 0.1718	-0.2675	 0.0945	
   404	-0.3010	 0.1063	-0.2108	 0.1767	-0.3854	-0.0086	-0.5112	 0.0274	-0.4546	 0.1095	-0.1443	 0.2808	 0.0620	 0.1654	-0.2152	 0.1100	
   405	-0.2586	 0.0999	-0.1763	 0.1815	-0.3341	-0.0096	-0.4589	 0.0430	-0.4112	 0.1198	-0.1009	 0.2910	 0.0966	 0.1702	-0.1294	 0.1138	
   406	-0.2241	 0.1047	-0.1418	 0.1864	-0.2907	 0.0006	-0.3988	 0.0473	-0.3767	 0.1246	-0.0664	 0.2958	 0.1311	 0.1751	-0.0771	 0.1294	
   407	-0.1896	 0.1095	-0.0906	 0.1853	-0.2395	-0.0005	-0.3554	 0.0575	-0.3421	 0.1294	-0.0151	 0.2947	 0.1567	 0.1745	-0.0170	 0.1337	
   408	-0.1473	 0.1031	-0.0561	 0.1901	-0.2050	 0.0043	-0.3041	 0.0564	-0.2998	 0.1230	 0.0194	 0.2996	 0.1912	 0.1794	 0.0264	 0.1439	
   409	-0.1217	 0.1026	-0.0137	 0.1837	-0.1704	 0.0092	-0.2607	 0.0666	-0.2909	 0.1283	 0.0450	 0.2990	 0.2257	 0.1842	 0.0687	 0.1374	
   410	-0.1039	 0.1133	 0.0041	 0.1944	-0.1526	 0.0199	-0.2262	 0.0714	-0.2653	 0.1278	 0.0628	 0.3098	 0.2513	 0.1837	 0.0865	 0.1482	
   411	-0.0871	 0.1074	 0.0375	 0.1826	-0.1270	 0.0194	-0.2006	 0.0709	-0.2486	 0.1219	 0.0962	 0.2980	 0.2859	 0.1885	 0.1122	 0.1476	
   412	-0.0871	 0.1074	 0.0542	 0.1767	-0.1014	 0.0188	-0.1839	 0.0650	-0.2397	 0.1273	 0.0973	 0.3146	 0.3115	 0.1879	 0.1467	 0.1524	
   413	-0.0871	 0.1074	 0.0542	 0.1767	-0.1103	 0.0135	-0.2006	 0.0709	-0.2397	 0.1273	 0.1397	 0.3082	 0.3204	 0.1933	 0.1901	 0.1626	
   414	-0.0793	 0.0961	 0.0709	 0.1708	-0.1103	 0.0135	-0.1928	 0.0596	-0.2141	 0.1267	 0.1831	 0.3184	 0.3293	 0.1987	 0.2424	 0.1782	
   415	-0.0704	 0.1015	 0.0798	 0.1762	-0.1192	 0.0081	-0.1928	 0.0596	-0.1963	 0.1375	 0.2187	 0.3398	 0.3460	 0.1928	 0.2947	 0.1938	
   416	-0.0359	 0.1063	 0.1311	 0.1751	-0.1192	 0.0081	-0.1839	 0.0650	-0.1785	 0.1482	 0.3044	 0.3436	 0.3549	 0.1982	 0.3637	 0.2035	
   417	-0.0014	 0.1111	 0.1656	 0.1799	-0.1114	-0.0032	-0.1672	 0.0591	-0.1529	 0.1477	 0.3567	 0.3592	 0.3638	 0.2035	 0.3993	 0.2249	
   418	 0.0331	 0.1160	 0.2090	 0.1901	-0.1025	 0.0022	-0.1494	 0.0698	-0.1518	 0.1643	 0.4001	 0.3694	 0.3805	 0.1976	 0.4082	 0.2303	
   419	 0.0509	 0.1267	 0.2346	 0.1896	-0.0858	-0.0037	-0.1405	 0.0752	-0.1440	 0.1530	 0.4001	 0.3694	 0.3727	 0.2089	 0.4082	 0.2303	
   420	 0.0520	 0.1434	 0.2268	 0.2009	-0.0858	-0.0037	-0.1237	 0.0693	-0.1529	 0.1477	 0.3912	 0.3640	 0.3727	 0.2089	 0.3815	 0.2142	
   421	 0.0520	 0.1434	 0.2179	 0.1955	-0.0858	-0.0037	-0.1326	 0.0639	-0.1617	 0.1423	 0.3656	 0.3645	 0.3727	 0.2089	 0.3548	 0.1981	
   422	 0.0520	 0.1434	 0.2090	 0.1901	-0.0858	-0.0037	-0.1415	 0.0586	-0.1874	 0.1428	 0.3400	 0.3651	 0.3894	 0.2030	 0.3036	 0.1992	
   423	 0.0353	 0.1493	 0.2001	 0.1847	-0.1025	 0.0022	-0.1504	 0.0532	-0.2041	 0.1487	 0.3233	 0.3710	 0.3894	 0.2030	 0.2858	 0.1884	
   424	 0.0353	 0.1493	 0.1745	 0.1853	-0.1192	 0.0081	-0.1593	 0.0478	-0.2041	 0.1487	 0.3322	 0.3764	 0.3983	 0.2084	 0.2680	 0.1777	
   425	 0.0264	 0.1439	 0.1489	 0.1858	-0.1281	 0.0027	-0.1850	 0.0484	-0.2041	 0.1487	 0.3322	 0.3764	 0.3983	 0.2084	 0.2424	 0.1782	
   426	 0.0175	 0.1385	 0.1322	 0.1917	-0.1370	-0.0027	-0.2017	 0.0543	-0.2041	 0.1487	 0.3322	 0.3764	 0.3816	 0.2143	 0.2335	 0.1729	
   427	-0.0081	 0.1391	 0.1233	 0.1864	-0.1626	-0.0021	-0.2273	 0.0548	-0.2130	 0.1434	 0.3322	 0.3764	 0.3816	 0.2143	 0.1990	 0.1680	
   428	-0.0337	 0.1396	 0.0976	 0.1869	-0.1715	-0.0075	-0.2362	 0.0494	-0.2219	 0.1380	 0.3233	 0.3710	 0.3727	 0.2089	 0.1734	 0.1686	
   429	-0.0683	 0.1348	 0.0798	 0.1762	-0.2139	-0.0010	-0.2540	 0.0387	-0.2475	 0.1385	 0.2977	 0.3715	 0.3471	 0.2094	 0.1389	 0.1637	
   430	-0.1028	 0.1299	 0.0453	 0.1713	-0.2484	-0.0059	-0.2885	 0.0339	-0.2564	 0.1332	 0.2721	 0.3721	 0.3293	 0.1987	 0.1211	 0.1530	
   431	-0.1206	 0.1192	 0.0197	 0.1719	-0.2662	-0.0166	-0.3230	 0.0290	-0.2731	 0.1391	 0.2543	 0.3613	 0.3037	 0.1992	 0.0865	 0.1482	
   432	-0.1551	 0.1144	-0.0148	 0.1670	-0.3174	-0.0155	-0.3742	 0.0301	-0.2820	 0.1337	 0.2286	 0.3619	 0.2859	 0.1885	 0.0609	 0.1487	
   433	-0.1896	 0.1095	-0.0493	 0.1622	-0.3352	-0.0263	-0.4088	 0.0253	-0.2820	 0.1337	 0.2030	 0.3624	 0.2602	 0.1890	 0.0353	 0.1492	
   434	-0.2074	 0.0988	-0.0838	 0.1574	-0.3530	-0.0370	-0.4266	 0.0145	-0.3076	 0.1342	 0.1852	 0.3517	 0.2257	 0.1842	 0.0008	 0.1444	
   435	-0.2408	 0.1106	-0.1016	 0.1466	-0.3786	-0.0365	-0.4611	 0.0097	-0.3332	 0.1348	 0.1507	 0.3468	 0.2001	 0.1847	-0.0337	 0.1396	
   436	-0.2586	 0.0999	-0.1361	 0.1418	-0.3964	-0.0472	-0.4956	 0.0049	-0.3678	 0.1300	 0.1162	 0.3420	 0.1823	 0.1740	-0.0771	 0.1294	
   437	-0.2764	 0.0891	-0.1707	 0.1370	-0.4387	-0.0408	-0.5301	 0.0000	-0.3856	 0.1192	 0.0650	 0.3431	 0.1567	 0.1745	-0.1116	 0.1245	
   438	-0.3020	 0.0897	-0.2219	 0.1380	-0.4565	-0.0515	-0.5646	-0.0048	-0.4279	 0.1257	 0.0383	 0.3270	 0.1222	 0.1697	-0.1294	 0.1138	
   439	-0.3277	 0.0902	-0.2397	 0.1273	-0.4822	-0.0510	-0.5991	-0.0096	-0.4290	 0.1090	 0.0294	 0.3216	 0.1133	 0.1643	-0.1640	 0.1090	
   440	-0.3366	 0.0848	-0.2486	 0.1219	-0.4911	-0.0563	-0.5991	-0.0096	-0.4457	 0.1149	 0.0205	 0.3162	 0.1044	 0.1590	-0.1640	 0.1090	
   441	-0.3109	 0.0843	-0.2564	 0.1332	-0.4654	-0.0569	-0.5735	-0.0102	-0.4368	 0.1203	 0.0127	 0.3275	 0.1044	 0.1590	-0.1383	 0.1084	
   442	-0.2675	 0.0945	-0.2219	 0.1380	-0.4309	-0.0520	-0.5134	-0.0059	-0.4112	 0.1198	 0.0383	 0.3270	 0.1222	 0.1697	-0.1116	 0.1245	
   443	-0.2241	 0.1047	-0.1707	 0.1370	-0.3875	-0.0418	-0.4611	 0.0097	-0.3767	 0.1246	 0.0895	 0.3259	 0.1734	 0.1686	-0.0348	 0.1229	
   444	-0.1640	 0.1090	-0.1272	 0.1472	-0.3274	-0.0376	-0.4088	 0.0253	-0.3343	 0.1181	 0.1329	 0.3361	 0.2079	 0.1735	 0.0175	 0.1385	
   445	-0.1128	 0.1079	-0.0593	 0.1402	-0.3007	-0.0214	-0.3486	 0.0296	-0.3165	 0.1289	 0.1930	 0.3404	 0.2424	 0.1783	 0.0776	 0.1428	
   446	-0.0782	 0.1128	-0.0326	 0.1563	-0.2494	-0.0225	-0.2885	 0.0339	-0.2909	 0.1283	 0.2365	 0.3506	 0.2770	 0.1831	 0.1300	 0.1584	
   447	-0.0348	 0.1230	 0.0186	 0.1552	-0.2149	-0.0177	-0.2451	 0.0441	-0.2653	 0.1278	 0.2710	 0.3554	 0.3193	 0.1767	 0.1812	 0.1573	
   448	-0.0170	 0.1337	 0.0620	 0.1654	-0.1893	-0.0182	-0.1939	 0.0430	-0.2397	 0.1273	 0.3144	 0.3656	 0.3371	 0.1874	 0.2079	 0.1734	
   449	 0.0253	 0.1273	 0.0966	 0.1703	-0.1715	-0.0075	-0.1839	 0.0650	-0.2308	 0.1326	 0.3489	 0.3704	 0.3627	 0.1869	 0.2424	 0.1782	
   450	 0.0509	 0.1267	 0.1389	 0.1638	-0.1381	-0.0193	-0.1337	 0.0473	-0.2052	 0.1321	 0.3834	 0.3753	 0.3883	 0.1863	 0.2680	 0.1777	
   451	 0.0431	 0.1380	 0.1478	 0.1692	-0.1459	-0.0080	-0.1248	 0.0527	-0.1963	 0.1375	 0.3923	 0.3806	 0.3972	 0.1917	 0.2769	 0.1831	
   452	 0.0431	 0.1380	 0.1400	 0.1805	-0.1459	-0.0080	-0.1159	 0.0580	-0.1874	 0.1428	 0.4012	 0.3860	 0.4139	 0.1858	 0.2769	 0.1831	
   453	 0.0431	 0.1380	 0.1400	 0.1805	-0.1459	-0.0080	-0.1159	 0.0580	-0.1706	 0.1369	 0.4012	 0.3860	 0.4061	 0.1971	 0.2847	 0.1718	
   454	 0.0431	 0.1380	 0.1478	 0.1692	-0.1459	-0.0080	-0.1081	 0.0467	-0.1706	 0.1369	 0.4090	 0.3747	 0.4061	 0.1971	 0.2680	 0.1777	
   455	 0.0342	 0.1326	 0.1311	 0.1751	-0.1381	-0.0193	-0.1248	 0.0527	-0.1706	 0.1369	 0.3923	 0.3806	 0.4228	 0.1912	 0.2758	 0.1664	
   456	 0.0175	 0.1385	 0.1222	 0.1697	-0.1459	-0.0080	-0.1248	 0.0527	-0.1706	 0.1369	 0.3923	 0.3806	 0.4150	 0.2024	 0.2758	 0.1664	
   457	 0.0342	 0.1326	 0.1222	 0.1697	-0.1459	-0.0080	-0.1248	 0.0527	-0.1795	 0.1316	 0.3923	 0.3806	 0.4317	 0.1965	 0.2591	 0.1723	
   458	 0.0175	 0.1385	 0.1300	 0.1584	-0.1459	-0.0080	-0.1248	 0.0527	-0.1795	 0.1316	 0.3923	 0.3806	 0.4317	 0.1965	 0.2591	 0.1723	
   459	 0.0342	 0.1326	 0.1300	 0.1584	-0.1381	-0.0193	-0.1415	 0.0586	-0.1963	 0.1375	 0.3845	 0.3919	 0.4317	 0.1965	 0.2591	 0.1723	
   460	 0.0175	 0.1385	 0.1133	 0.1643	-0.1548	-0.0134	-0.1337	 0.0473	-0.2130	 0.1434	 0.3923	 0.3806	 0.4317	 0.1965	 0.2591	 0.1723	
   461	 0.0253	 0.1273	 0.0966	 0.1703	-0.1637	-0.0188	-0.1504	 0.0532	-0.2130	 0.1434	 0.4012	 0.3860	 0.4317	 0.1965	 0.2502	 0.1669	
   462	-0.0003	 0.1278	 0.0877	 0.1649	-0.1726	-0.0241	-0.1593	 0.0478	-0.2219	 0.1380	 0.4001	 0.3694	 0.4150	 0.2024	 0.2246	 0.1675	
   463	-0.0170	 0.1337	 0.0620	 0.1654	-0.1815	-0.0295	-0.1682	 0.0424	-0.2219	 0.1380	 0.3578	 0.3758	 0.4061	 0.1971	 0.2068	 0.1567	
   464	-0.0348	 0.1230	 0.0443	 0.1547	-0.2149	-0.0177	-0.1939	 0.0430	-0.2475	 0.1385	 0.3322	 0.3764	 0.3972	 0.1917	 0.1723	 0.1519	
   465	-0.0693	 0.1181	 0.0097	 0.1498	-0.2327	-0.0284	-0.2284	 0.0382	-0.2564	 0.1332	 0.2977	 0.3715	 0.3716	 0.1922	 0.1456	 0.1358	
   466	-0.1039	 0.1133	-0.0248	 0.1450	-0.2583	-0.0279	-0.2462	 0.0274	-0.2820	 0.1337	 0.2543	 0.3613	 0.3460	 0.1928	 0.0944	 0.1369	
   467	-0.1384	 0.1085	-0.0593	 0.1402	-0.2840	-0.0273	-0.2807	 0.0226	-0.2998	 0.1230	 0.2197	 0.3565	 0.3371	 0.1874	 0.0598	 0.1320	
   468	-0.1640	 0.1090	-0.0938	 0.1354	-0.3096	-0.0268	-0.3152	 0.0178	-0.3432	 0.1128	 0.1763	 0.3463	 0.3026	 0.1826	 0.0086	 0.1331	
   469	-0.1985	 0.1042	-0.1194	 0.1359	-0.3274	-0.0376	-0.3330	 0.0070	-0.3777	 0.1079	 0.1340	 0.3527	 0.2770	 0.1831	-0.0181	 0.1170	
   470	-0.2241	 0.1047	-0.1372	 0.1252	-0.3530	-0.0370	-0.3586	 0.0076	-0.4044	 0.0918	 0.1151	 0.3253	 0.2424	 0.1783	-0.0526	 0.1122	
   471	-0.2419	 0.0940	-0.1796	 0.1316	-0.3786	-0.0365	-0.3931	 0.0027	-0.4300	 0.0924	 0.0728	 0.3318	 0.2246	 0.1675	-0.0949	 0.1186	
   472	-0.2764	 0.0891	-0.2141	 0.1268	-0.3964	-0.0472	-0.4276	-0.0021	-0.4557	 0.0929	 0.0550	 0.3211	 0.2069	 0.1568	-0.1216	 0.1025	
   473	-0.2942	 0.0784	-0.2486	 0.1219	-0.4387	-0.0408	-0.4622	-0.0069	-0.4646	 0.0875	 0.0205	 0.3162	 0.1812	 0.1573	-0.1561	 0.0977	
   474	-0.3287	 0.0736	-0.2664	 0.1112	-0.4565	-0.0515	-0.4967	-0.0118	-0.4902	 0.0881	-0.0140	 0.3114	 0.1467	 0.1525	-0.1996	 0.0875	
   475	-0.3633	 0.0687	-0.3098	 0.1010	-0.4743	-0.0622	-0.5479	-0.0107	-0.5158	 0.0886	-0.0575	 0.3012	 0.1289	 0.1418	-0.2341	 0.0827	
   476	-0.3978	 0.0639	-0.3443	 0.0962	-0.5000	-0.0617	-0.5657	-0.0214	-0.5336	 0.0779	-0.0841	 0.2851	 0.0944	 0.1369	-0.2942	 0.0784	
   477	-0.4156	 0.0532	-0.3788	 0.0913	-0.5256	-0.0612	-0.5835	-0.0322	-0.5681	 0.0730	-0.1354	 0.2862	 0.0688	 0.1375	-0.3120	 0.0676	
   478	-0.4323	 0.0591	-0.3788	 0.0913	-0.5256	-0.0612	-0.5913	-0.0209	-0.5770	 0.0677	-0.1276	 0.2749	 0.0688	 0.1375	-0.3031	 0.0730	
   479	-0.3978	 0.0639	-0.3699	 0.0967	-0.4832	-0.0676	-0.5490	-0.0273	-0.5692	 0.0564	-0.1108	 0.2690	 0.0777	 0.1429	-0.2686	 0.0778	
   480	-0.3465	 0.0628	-0.3354	 0.1015	-0.4565	-0.0515	-0.4888	-0.0231	-0.5603	 0.0618	-0.0841	 0.2851	 0.1033	 0.1423	-0.1917	 0.0762	
   481	-0.2942	 0.0784	-0.2842	 0.1005	-0.3964	-0.0472	-0.4444	 0.0038	-0.5258	 0.0666	-0.0329	 0.2840	 0.1378	 0.1471	-0.1394	 0.0918	
   482	-0.2430	 0.0773	-0.2408	 0.1107	-0.3452	-0.0483	-0.3842	 0.0081	-0.5002	 0.0661	 0.0105	 0.2942	 0.1802	 0.1407	-0.0704	 0.1014	
   483	-0.1996	 0.0875	-0.1974	 0.1209	-0.3107	-0.0435	-0.3241	 0.0124	-0.4656	 0.0709	 0.0539	 0.3044	 0.2058	 0.1402	-0.0181	 0.1170	
   484	-0.1651	 0.0924	-0.1461	 0.1198	-0.2929	-0.0327	-0.2896	 0.0172	-0.4389	 0.0870	 0.0884	 0.3092	 0.2314	 0.1396	 0.0332	 0.1159	
   485	-0.1394	 0.0918	-0.1205	 0.1192	-0.2761	-0.0386	-0.2551	 0.0220	-0.3877	 0.0859	 0.1397	 0.3082	 0.2570	 0.1391	 0.0598	 0.1320	
   486	-0.1217	 0.1026	-0.1116	 0.1246	-0.2594	-0.0445	-0.2462	 0.0274	-0.3610	 0.1020	 0.1575	 0.3189	 0.2748	 0.1498	 0.1111	 0.1310	
   487	-0.0960	 0.1020	-0.0860	 0.1241	-0.2338	-0.0451	-0.2284	 0.0382	-0.3532	 0.0908	 0.1831	 0.3184	 0.2915	 0.1439	 0.1367	 0.1304	
   488	-0.0871	 0.1074	-0.0525	 0.1123	-0.2249	-0.0397	-0.1949	 0.0263	-0.3710	 0.0800	 0.1831	 0.3184	 0.3004	 0.1493	 0.1456	 0.1358	
   489	-0.0537	 0.0956	-0.0437	 0.1176	-0.2160	-0.0343	-0.1860	 0.0317	-0.4144	 0.0698	 0.1653	 0.3076	 0.2837	 0.1552	 0.1289	 0.1417	
   490	-0.0537	 0.0956	-0.0437	 0.1176	-0.2160	-0.0343	-0.1860	 0.0317	-0.4322	 0.0591	 0.1564	 0.3023	 0.2915	 0.1439	 0.1289	 0.1417	
   491	-0.0615	 0.1069	-0.0348	 0.1230	-0.2160	-0.0343	-0.1860	 0.0317	-0.4500	 0.0483	 0.1475	 0.2969	 0.2915	 0.1439	 0.1289	 0.1417	
   492	-0.0615	 0.1069	-0.0180	 0.1171	-0.2160	-0.0343	-0.1860	 0.0317	-0.4667	 0.0542	 0.1475	 0.2969	 0.2826	 0.1386	 0.1367	 0.1304	
   493	-0.0526	 0.1122	-0.0348	 0.1230	-0.2160	-0.0343	-0.1860	 0.0317	-0.4489	 0.0650	 0.1397	 0.3082	 0.2826	 0.1386	 0.1289	 0.1417	
   494	-0.0526	 0.1122	-0.0348	 0.1230	-0.2160	-0.0343	-0.1949	 0.0263	-0.4311	 0.0757	 0.1486	 0.3135	 0.2915	 0.1439	 0.1367	 0.1304	
   495	-0.0526	 0.1122	-0.0348	 0.1230	-0.2327	-0.0284	-0.1949	 0.0263	-0.4222	 0.0811	 0.1575	 0.3189	 0.2915	 0.1439	 0.1200	 0.1363	
   496	-0.0526	 0.1122	-0.0515	 0.1289	-0.2327	-0.0284	-0.1949	 0.0263	-0.4400	 0.0704	 0.1318	 0.3194	 0.2915	 0.1439	 0.1022	 0.1256	
   497	-0.0693	 0.1181	-0.0437	 0.1176	-0.2327	-0.0284	-0.1949	 0.0263	-0.4489	 0.0650	 0.1229	 0.3141	 0.2915	 0.1439	 0.0766	 0.1261	
   498	-0.0782	 0.1128	-0.0693	 0.1182	-0.2494	-0.0225	-0.2205	 0.0269	-0.4656	 0.0709	 0.1062	 0.3200	 0.2915	 0.1439	 0.0677	 0.1208	
   499	-0.0871	 0.1074	-0.0860	 0.1241	-0.2583	-0.0279	-0.2127	 0.0156	-0.4913	 0.0714	 0.0973	 0.3146	 0.2581	 0.1557	 0.0421	 0.1213	
   500	-0.1128	 0.1079	-0.1116	 0.1246	-0.2840	-0.0273	-0.2383	 0.0161	-0.5002	 0.0661	 0.0962	 0.2980	 0.2492	 0.1504	 0.0332	 0.1159	
   501	-0.1217	 0.1026	-0.1205	 0.1192	-0.2929	-0.0327	-0.2640	 0.0167	-0.5180	 0.0553	 0.0539	 0.3044	 0.2314	 0.1396	 0.0075	 0.1165	
   502	-0.1473	 0.1031	-0.1461	 0.1198	-0.3107	-0.0435	-0.2896	 0.0172	-0.5357	 0.0446	 0.0272	 0.2883	 0.2058	 0.1402	-0.0181	 0.1170	
   503	-0.1562	 0.0977	-0.1550	 0.1144	-0.3363	-0.0429	-0.3074	 0.0065	-0.5703	 0.0397	 0.0094	 0.2776	 0.1880	 0.1294	-0.0604	 0.1235	
   504	-0.1818	 0.0983	-0.1806	 0.1150	-0.3619	-0.0424	-0.3330	 0.0070	-0.6059	 0.0183	-0.0585	 0.2845	 0.1456	 0.1359	-0.0871	 0.1073	
   505	-0.2074	 0.0988	-0.1984	 0.1042	-0.3708	-0.0478	-0.3675	 0.0022	-0.6493	 0.0081	-0.0941	 0.2631	 0.1278	 0.1251	-0.1383	 0.1084	
   506	-0.2419	 0.0940	-0.2408	 0.1107	-0.3964	-0.0472	-0.3853	-0.0086	-0.6838	 0.0032	-0.1543	 0.2588	 0.1100	 0.1144	-0.1739	 0.0869	
   507	-0.2597	 0.0832	-0.2586	 0.0999	-0.4220	-0.0467	-0.4198	-0.0134	-0.7183	-0.0016	-0.1977	 0.2486	 0.0755	 0.1096	-0.2174	 0.0767	
   508	-0.2942	 0.0784	-0.2931	 0.0951	-0.4309	-0.0520	-0.4543	-0.0182	-0.7361	-0.0123	-0.2333	 0.2271	 0.0577	 0.0988	-0.2697	 0.0612	
   509	-0.3287	 0.0736	-0.3276	 0.0903	-0.4565	-0.0515	-0.4721	-0.0290	-0.7539	-0.0231	-0.2767	 0.2169	 0.0154	 0.1053	-0.3298	 0.0569	
   510	-0.3633	 0.0687	-0.3621	 0.0854	-0.4822	-0.0510	-0.5066	-0.0338	-0.7873	-0.0113	-0.3112	 0.2121	-0.0024	 0.0945	-0.3810	 0.0580	
   511	-0.3978	 0.0639	-0.3966	 0.0806	-0.5000	-0.0617	-0.5412	-0.0386	-0.7962	-0.0166	-0.3535	 0.2185	-0.0280	 0.0951	-0.4077	 0.0418	
   512	-0.4412	 0.0537	-0.4557	 0.0929	-0.5423	-0.0553	-0.5757	-0.0435	-0.8218	-0.0161	-0.3713	 0.2078	-0.0625	 0.0902	-0.4422	 0.0370	
   513	-0.4757	 0.0489	-0.4824	 0.0768	-0.5601	-0.0660	-0.6269	-0.0424	-0.8396	-0.0268	-0.3724	 0.1911	-0.0881	 0.0908	-0.4768	 0.0322	
   514	-0.5191	 0.0387	-0.5169	 0.0720	-0.5946	-0.0708	-0.6536	-0.0585	-0.8909	-0.0258	-0.4158	 0.1809	-0.1059	 0.0800	-0.5202	 0.0220	
   515	-0.5703	 0.0397	-0.5681	 0.0731	-0.6291	-0.0757	-0.7048	-0.0574	-0.9176	-0.0419	-0.4670	 0.1820	-0.1405	 0.0752	-0.5547	 0.0172	
   516	-0.5803	 0.0177	-0.6026	 0.0682	-0.6469	-0.0864	-0.7315	-0.0735	-0.9688	-0.0408	-0.5016	 0.1772	-0.1661	 0.0757	-0.5981	 0.0070	
   517	-0.6059	 0.0183	-0.6204	 0.0575	-0.6725	-0.0859	-0.7571	-0.0730	-1.0033	-0.0456	-0.5450	 0.1670	-0.1839	 0.0650	-0.6237	 0.0075	
   518	-0.6227	 0.0242	-0.6293	 0.0521	-0.6892	-0.0800	-0.7739	-0.0671	-1.0122	-0.0510	-0.5617	 0.1729	-0.1928	 0.0596	-0.6237	 0.0075	
   519	-0.5881	 0.0290	-0.6293	 0.0521	-0.6636	-0.0805	-0.7482	-0.0676	-1.0122	-0.0510	-0.5617	 0.1729	-0.1760	 0.0537	-0.5981	 0.0070	
   520	-0.5536	 0.0338	-0.6115	 0.0629	-0.6213	-0.0869	-0.7048	-0.0574	-0.9866	-0.0515	-0.5361	 0.1723	-0.1671	 0.0591	-0.5547	 0.0172	
   521	-0.5102	 0.0440	-0.5603	 0.0618	-0.5779	-0.0767	-0.6447	-0.0531	-0.9443	-0.0580	-0.4848	 0.1713	-0.1326	 0.0639	-0.4945	 0.0214	
   522	-0.4668	 0.0542	-0.5258	 0.0666	-0.5512	-0.0606	-0.5757	-0.0435	-0.9354	-0.0526	-0.4425	 0.1648	-0.1070	 0.0634	-0.4511	 0.0316	
   523	-0.4323	 0.0591	-0.4745	 0.0656	-0.5000	-0.0617	-0.5323	-0.0333	-0.9186	-0.0585	-0.4336	 0.1702	-0.0814	 0.0628	-0.4166	 0.0365	
   524	-0.4067	 0.0585	-0.4489	 0.0650	-0.4743	-0.0622	-0.4977	-0.0284	-0.9186	-0.0585	-0.4169	 0.1643	-0.0725	 0.0682	-0.3821	 0.0413	
   525	-0.3811	 0.0580	-0.4144	 0.0699	-0.4565	-0.0515	-0.4632	-0.0236	-0.9019	-0.0644	-0.4080	 0.1696	-0.0558	 0.0623	-0.3476	 0.0461	
   526	-0.3465	 0.0628	-0.3721	 0.0634	-0.4309	-0.0520	-0.4287	-0.0188	-0.8930	-0.0590	-0.3824	 0.1691	-0.0469	 0.0677	-0.3209	 0.0623	
   527	-0.3376	 0.0682	-0.3543	 0.0741	-0.4053	-0.0526	-0.4109	-0.0080	-0.8841	-0.0537	-0.3568	 0.1686	-0.0302	 0.0618	-0.2864	 0.0671	
   528	-0.3120	 0.0677	-0.3287	 0.0736	-0.3964	-0.0472	-0.3775	-0.0198	-0.8496	-0.0488	-0.3301	 0.1847	-0.0046	 0.0612	-0.2440	 0.0606	
   529	-0.3120	 0.0677	-0.3287	 0.0736	-0.3964	-0.0472	-0.3775	-0.0198	-0.8407	-0.0435	-0.3212	 0.1900	-0.0046	 0.0612	-0.2351	 0.0660	
   530	-0.3120	 0.0677	-0.3287	 0.0736	-0.3964	-0.0472	-0.3775	-0.0198	-0.8240	-0.0494	-0.3379	 0.1960	-0.0046	 0.0612	-0.2440	 0.0606	
   531	-0.3287	 0.0736	-0.3376	 0.0682	-0.4053	-0.0526	-0.3942	-0.0139	-0.8407	-0.0435	-0.3379	 0.1960	-0.0213	 0.0671	-0.2440	 0.0606	
   532	-0.3209	 0.0623	-0.3465	 0.0629	-0.4053	-0.0526	-0.4031	-0.0193	-0.8496	-0.0488	-0.3301	 0.1847	-0.0213	 0.0671	-0.2529	 0.0553	
   533	-0.3209	 0.0623	-0.3632	 0.0688	-0.4142	-0.0580	-0.4120	-0.0247	-0.8585	-0.0542	-0.3390	 0.1793	-0.0134	 0.0559	-0.2697	 0.0612	
   534	-0.3287	 0.0736	-0.3632	 0.0688	-0.4142	-0.0580	-0.4287	-0.0188	-0.8841	-0.0537	-0.3557	 0.1852	-0.0302	 0.0618	-0.2697	 0.0612	
   535	-0.3287	 0.0736	-0.3554	 0.0575	-0.4309	-0.0520	-0.4287	-0.0188	-0.8763	-0.0650	-0.3724	 0.1911	-0.0302	 0.0618	-0.2529	 0.0553	
   536	-0.3287	 0.0736	-0.3721	 0.0634	-0.4231	-0.0633	-0.4376	-0.0241	-0.8930	-0.0590	-0.3724	 0.1911	-0.0469	 0.0677	-0.2608	 0.0665	
   537	-0.3287	 0.0736	-0.3721	 0.0634	-0.4398	-0.0574	-0.4465	-0.0295	-0.9019	-0.0644	-0.3557	 0.1852	-0.0391	 0.0564	-0.2608	 0.0665	
   538	-0.3287	 0.0736	-0.3721	 0.0634	-0.4398	-0.0574	-0.4465	-0.0295	-0.9108	-0.0698	-0.3646	 0.1798	-0.0558	 0.0623	-0.2697	 0.0612	
   539	-0.3455	 0.0795	-0.3977	 0.0639	-0.4487	-0.0628	-0.4721	-0.0290	-0.9364	-0.0692	-0.3902	 0.1804	-0.0647	 0.0569	-0.2953	 0.0617	
   540	-0.3544	 0.0741	-0.4066	 0.0586	-0.4576	-0.0682	-0.4732	-0.0456	-0.9542	-0.0800	-0.4080	 0.1696	-0.0736	 0.0516	-0.3131	 0.0510	
   541	-0.3633	 0.0687	-0.4322	 0.0591	-0.4743	-0.0622	-0.4988	-0.0451	-0.9888	-0.0848	-0.4592	 0.1707	-0.0992	 0.0521	-0.3643	 0.0520	
   542	-0.3889	 0.0693	-0.4578	 0.0597	-0.5000	-0.0617	-0.5244	-0.0445	-1.0066	-0.0956	-0.4770	 0.1600	-0.1081	 0.0467	-0.3821	 0.0413	
   543	-0.4234	 0.0644	-0.4667	 0.0543	-0.5088	-0.0671	-0.5501	-0.0440	-1.0322	-0.0950	-0.5204	 0.1498	-0.1337	 0.0473	-0.4333	 0.0424	
   544	-0.4579	 0.0596	-0.5091	 0.0607	-0.5512	-0.0606	-0.5846	-0.0488	-1.0500	-0.1058	-0.5550	 0.1449	-0.1515	 0.0365	-0.4679	 0.0376	
   545	-0.4924	 0.0548	-0.5269	 0.0500	-0.5601	-0.0660	-0.6024	-0.0596	-1.0923	-0.0993	-0.6073	 0.1294	-0.1860	 0.0317	-0.5113	 0.0274	
   546	-0.5191	 0.0387	-0.5614	 0.0452	-0.5779	-0.0767	-0.6280	-0.0590	-1.1101	-0.1100	-0.6585	 0.1305	-0.2116	 0.0322	-0.5547	 0.0172	
   547	-0.5536	 0.0338	-0.6037	 0.0516	-0.6035	-0.0762	-0.6792	-0.0579	-1.1446	-0.1149	-0.6941	 0.1090	-0.2462	 0.0274	-0.5981	 0.0070	
   548	-0.5970	 0.0236	-0.6215	 0.0409	-0.6291	-0.0757	-0.6892	-0.0800	-1.1791	-0.1197	-0.7375	 0.0988	-0.2807	 0.0226	-0.6415	-0.0033	
   549	-0.6483	 0.0247	-0.6727	 0.0419	-0.6547	-0.0751	-0.7404	-0.0789	-1.1969	-0.1305	-0.7809	 0.0886	-0.3063	 0.0231	-0.6849	-0.0135	
   550	-0.6750	 0.0086	-0.7073	 0.0371	-0.6803	-0.0746	-0.7749	-0.0837	-1.2225	-0.1299	-0.8321	 0.0896	-0.3241	 0.0124	-0.7283	-0.0237	
   551	-0.7095	 0.0038	-0.7418	 0.0323	-0.6981	-0.0853	-0.8016	-0.0998	-1.2314	-0.1353	-0.8499	 0.0789	-0.3497	 0.0129	-0.7717	-0.0339	
   552	-0.7607	 0.0048	-0.7685	 0.0162	-0.7238	-0.0848	-0.8362	-0.1047	-1.2649	-0.1235	-0.8845	 0.0741	-0.3753	 0.0135	-0.8230	-0.0328	
   553	-0.8041	-0.0054	-0.8197	 0.0172	-0.7583	-0.0896	-0.8796	-0.1149	-1.2827	-0.1342	-0.9190	 0.0692	-0.3931	 0.0027	-0.8497	-0.0489	
   554	-0.8308	-0.0215	-0.8542	 0.0124	-0.7928	-0.0945	-0.9141	-0.1197	-1.3172	-0.1390	-0.9624	 0.0590	-0.4276	-0.0021	-0.9009	-0.0478	
   555	-0.8653	-0.0263	-0.8887	 0.0076	-0.8273	-0.0993	-0.9653	-0.1186	-1.3350	-0.1498	-0.9880	 0.0596	-0.4532	-0.0016	-0.9354	-0.0526	
   556	-0.8920	-0.0424	-0.9321	-0.0026	-0.8451	-0.1100	-0.9920	-0.1347	-1.3695	-0.1546	-1.0225	 0.0548	-0.4956	 0.0049	-0.9699	-0.0575	
   557	-0.9177	-0.0419	-0.9499	-0.0134	-0.8707	-0.1095	-1.0343	-0.1283	-1.3951	-0.1541	-1.0403	 0.0440	-0.5134	-0.0059	-0.9956	-0.0569	
   558	-0.9344	-0.0360	-0.9756	-0.0128	-0.8796	-0.1149	-1.0432	-0.1337	-1.4040	-0.1594	-1.0659	 0.0445	-0.5301	 0.0000	-0.9956	-0.0569	
   559	-0.9255	-0.0306	-0.9756	-0.0128	-0.8707	-0.1095	-1.0176	-0.1342	-1.3873	-0.1653	-1.0570	 0.0499	-0.5134	-0.0059	-0.9443	-0.0580	
   560	-0.8742	-0.0317	-0.9499	-0.0134	-0.8362	-0.1047	-0.9909	-0.1181	-1.3873	-0.1653	-1.0314	 0.0494	-0.4878	-0.0064	-0.9009	-0.0478	
   561	-0.8308	-0.0215	-0.8987	-0.0144	-0.7850	-0.1057	-0.9475	-0.1079	-1.3695	-0.1546	-0.9880	 0.0596	-0.4621	-0.0069	-0.8486	-0.0322	
   562	-0.7796	-0.0225	-0.8642	-0.0096	-0.7505	-0.1009	-0.8963	-0.1090	-1.3361	-0.1664	-0.9624	 0.0590	-0.4365	-0.0075	-0.7974	-0.0333	
   563	-0.7529	-0.0064	-0.8297	-0.0048	-0.7159	-0.0961	-0.8529	-0.0988	-1.3272	-0.1611	-0.9446	 0.0698	-0.4276	-0.0021	-0.7707	-0.0172	
   564	-0.7273	-0.0070	-0.8041	-0.0053	-0.6903	-0.0966	-0.8105	-0.1052	-1.3183	-0.1557	-0.9112	 0.0580	-0.4187	 0.0033	-0.7283	-0.0237	
   565	-0.7017	-0.0075	-0.7863	 0.0054	-0.6647	-0.0971	-0.7927	-0.0945	-1.3015	-0.1616	-0.9023	 0.0633	-0.3853	-0.0086	-0.7027	-0.0242	
   566	-0.6928	-0.0021	-0.7695	-0.0005	-0.6558	-0.0918	-0.7838	-0.0891	-1.2848	-0.1675	-0.8855	 0.0574	-0.3931	 0.0027	-0.6938	-0.0188	
   567	-0.6760	-0.0080	-0.7606	 0.0049	-0.6469	-0.0864	-0.7749	-0.0837	-1.3015	-0.1616	-0.8855	 0.0574	-0.3764	-0.0032	-0.6771	-0.0247	
   568	-0.6760	-0.0080	-0.7517	 0.0103	-0.6469	-0.0864	-0.7582	-0.0896	-1.3104	-0.1670	-0.8944	 0.0521	-0.3853	-0.0086	-0.6849	-0.0135	
   569	-0.6928	-0.0021	-0.7517	 0.0103	-0.6469	-0.0864	-0.7671	-0.0950	-1.3104	-0.1670	-0.8944	 0.0521	-0.3853	-0.0086	-0.6849	-0.0135	
   570	-0.7017	-0.0075	-0.7606	 0.0049	-0.6469	-0.0864	-0.7760	-0.1004	-1.3272	-0.1611	-0.9201	 0.0526	-0.3942	-0.0139	-0.6938	-0.0188	
   571	-0.6938	-0.0188	-0.7774	 0.0108	-0.6558	-0.0918	-0.7760	-0.1004	-1.3272	-0.1611	-0.9201	 0.0526	-0.3942	-0.0139	-0.7194	-0.0183	
   572	-0.7106	-0.0129	-0.7695	-0.0005	-0.6558	-0.0918	-0.7849	-0.1057	-1.3193	-0.1723	-0.9457	 0.0531	-0.4109	-0.0080	-0.7372	-0.0290	
   573	-0.7195	-0.0182	-0.7952	 0.0001	-0.6725	-0.0859	-0.8184	-0.0939	-1.3361	-0.1664	-0.9713	 0.0537	-0.4109	-0.0080	-0.7540	-0.0231	
   574	-0.7451	-0.0177	-0.8119	 0.0060	-0.6725	-0.0859	-0.8105	-0.1052	-1.3361	-0.1664	-0.9713	 0.0537	-0.4031	-0.0193	-0.7461	-0.0344	
   575	-0.7618	-0.0118	-0.8041	-0.0053	-0.6814	-0.0912	-0.8362	-0.1047	-1.3450	-0.1718	-0.9713	 0.0537	-0.4198	-0.0134	-0.7461	-0.0344	
   576	-0.7707	-0.0172	-0.8130	-0.0107	-0.6903	-0.0966	-0.8362	-0.1047	-1.3528	-0.1605	-0.9713	 0.0537	-0.4365	-0.0075	-0.7540	-0.0231	
   577	-0.7874	-0.0113	-0.8130	-0.0107	-0.7070	-0.0907	-0.8451	-0.1100	-1.3528	-0.1605	-0.9713	 0.0537	-0.4287	-0.0188	-0.7372	-0.0290	
   578	-0.7963	-0.0166	-0.8130	-0.0107	-0.7327	-0.0902	-0.8539	-0.1154	-1.3528	-0.1605	-0.9713	 0.0537	-0.4543	-0.0182	-0.7540	-0.0231	
   579	-0.8130	-0.0107	-0.8219	-0.0161	-0.7337	-0.1068	-0.8796	-0.1149	-1.3784	-0.1600	-0.9891	 0.0429	-0.4632	-0.0236	-0.7628	-0.0285	
   580	-0.8219	-0.0161	-0.8475	-0.0155	-0.7505	-0.1009	-0.9052	-0.1143	-1.3873	-0.1653	-1.0147	 0.0435	-0.4799	-0.0177	-0.7885	-0.0279	
   581	-0.8397	-0.0268	-0.8731	-0.0150	-0.7761	-0.1004	-0.9230	-0.1251	-1.4218	-0.1702	-1.0414	 0.0274	-0.4977	-0.0284	-0.8230	-0.0328	
   582	-0.8653	-0.0263	-0.8909	-0.0257	-0.7850	-0.1057	-0.9575	-0.1299	-1.4563	-0.1750	-1.0926	 0.0284	-0.5234	-0.0279	-0.8408	-0.0435	
   583	-0.8742	-0.0317	-0.9087	-0.0365	-0.8028	-0.1165	-0.9920	-0.1347	-1.4830	-0.1911	-1.1271	 0.0236	-0.5323	-0.0333	-0.8831	-0.0371	
   584	-0.8999	-0.0311	-0.9343	-0.0359	-0.8195	-0.1106	-1.0098	-0.1455	-1.5175	-0.1960	-1.1449	 0.0129	-0.5579	-0.0327	-0.9009	-0.0478	
   585	-0.9088	-0.0365	-0.9599	-0.0354	-0.8451	-0.1100	-1.0443	-0.1503	-1.5353	-0.2067	-1.1706	 0.0134	-0.5835	-0.0322	-0.9354	-0.0526	
   586	-0.9344	-0.0360	-0.9855	-0.0348	-0.8540	-0.1154	-1.0699	-0.1498	-1.5531	-0.2174	-1.2051	 0.0086	-0.6013	-0.0429	-0.9867	-0.0516	
   587	-0.9600	-0.0354	-1.0111	-0.0343	-0.8796	-0.1149	-1.0877	-0.1605	-1.5787	-0.2169	-1.2396	 0.0037	-0.6269	-0.0424	-1.0212	-0.0564	
   588	-0.9945	-0.0403	-1.0368	-0.0338	-0.9052	-0.1143	-1.1222	-0.1653	-1.6044	-0.2164	-1.2574	-0.0070	-0.6525	-0.0418	-1.0479	-0.0725	
   589	-1.0123	-0.0510	-1.0546	-0.0445	-0.9308	-0.1138	-1.1568	-0.1702	-1.6133	-0.2217	-1.2919	-0.0118	-0.6781	-0.0413	-1.0991	-0.0714	
   590	-1.0468	-0.0558	-1.0891	-0.0493	-0.9486	-0.1245	-1.1913	-0.1750	-1.6478	-0.2266	-1.3520	-0.0161	-0.6959	-0.0520	-1.1425	-0.0816	
   591	-1.0813	-0.0607	-1.1314	-0.0429	-0.9743	-0.1240	-1.2336	-0.1685	-1.6823	-0.2314	-1.3954	-0.0263	-0.7137	-0.0628	-1.1692	-0.0977	
   592	-1.1080	-0.0768	-1.1581	-0.0590	-0.9921	-0.1347	-1.2603	-0.1847	-1.7168	-0.2362	-1.4467	-0.0252	-0.7561	-0.0563	-1.2037	-0.1026	
   593	-1.1593	-0.0757	-1.2004	-0.0526	-1.0266	-0.1396	-1.2948	-0.1895	-1.7513	-0.2411	-1.4645	-0.0360	-0.7739	-0.0671	-1.2461	-0.0961	
   594	-1.1771	-0.0864	-1.2182	-0.0633	-1.0522	-0.1390	-1.3293	-0.1943	-1.7691	-0.2518	-1.4990	-0.0408	-0.8084	-0.0719	-1.2639	-0.1069	
   595	-1.2116	-0.0913	-1.2439	-0.0628	-1.0867	-0.1438	-1.3471	-0.2051	-1.7947	-0.2513	-1.5168	-0.0516	-0.8340	-0.0714	-1.2984	-0.1117	
   596	-1.2205	-0.0966	-1.2695	-0.0622	-1.0867	-0.1438	-1.3728	-0.2045	-1.8036	-0.2566	-1.5346	-0.0623	-0.8429	-0.0767	-1.3151	-0.1058	
   597	-1.2205	-0.0966	-1.2695	-0.0622	-1.0867	-0.1438	-1.3639	-0.1992	-1.7947	-0.2513	-1.5513	-0.0564	-0.8429	-0.0767	-1.3151	-0.1058	
   598	-1.1860	-0.0918	-1.2439	-0.0628	-1.0522	-0.1390	-1.3293	-0.1943	-1.7780	-0.2572	-1.5346	-0.0623	-0.8340	-0.0714	-1.2728	-0.1122	
   599	-1.1514	-0.0870	-1.2182	-0.0633	-1.0177	-0.1342	-1.2948	-0.1895	-1.7435	-0.2523	-1.5079	-0.0462	-0.7995	-0.0665	-1.2293	-0.1020	
   600	-1.1247	-0.0709	-1.1837	-0.0585	-0.9832	-0.1294	-1.2514	-0.1793	-1.7346	-0.2470	-1.4823	-0.0467	-0.7739	-0.0671	-1.1770	-0.0865	
   601	-1.0824	-0.0773	-1.1492	-0.0536	-0.9486	-0.1245	-1.2169	-0.1745	-1.7001	-0.2421	-1.4389	-0.0365	-0.7482	-0.0676	-1.1336	-0.0763	
   602	-1.0646	-0.0666	-1.1069	-0.0601	-0.9230	-0.1251	-1.1824	-0.1696	-1.6745	-0.2427	-1.4043	-0.0317	-0.7226	-0.0682	-1.0735	-0.0720	
   603	-1.0301	-0.0617	-1.0724	-0.0552	-0.8974	-0.1256	-1.1568	-0.1702	-1.6823	-0.2314	-1.3954	-0.0263	-0.7059	-0.0741	-1.0557	-0.0612	
   604	-1.0045	-0.0623	-1.0546	-0.0445	-0.8807	-0.1315	-1.1390	-0.1594	-1.6489	-0.2432	-1.3865	-0.0210	-0.7137	-0.0628	-1.0212	-0.0564	
   605	-0.9956	-0.0569	-1.0289	-0.0450	-0.8718	-0.1261	-1.1134	-0.1600	-1.6489	-0.2432	-1.3531	-0.0328	-0.6970	-0.0687	-1.0034	-0.0457	
   606	-0.9867	-0.0515	-1.0200	-0.0397	-0.8629	-0.1208	-1.1134	-0.1600	-1.6489	-0.2432	-1.3609	-0.0215	-0.6803	-0.0746	-0.9699	-0.0575	
   607	-0.9700	-0.0574	-1.0033	-0.0456	-0.8629	-0.1208	-1.1134	-0.1600	-1.6578	-0.2486	-1.3609	-0.0215	-0.6803	-0.0746	-0.9778	-0.0462	
   608	-0.9532	-0.0633	-1.0033	-0.0456	-0.8629	-0.1208	-1.1055	-0.1712	-1.6745	-0.2427	-1.3776	-0.0156	-0.6970	-0.0687	-0.9867	-0.0516	
   609	-0.9700	-0.0574	-1.0033	-0.0456	-0.8718	-0.1261	-1.1222	-0.1653	-1.6834	-0.2480	-1.3865	-0.0210	-0.6970	-0.0687	-0.9788	-0.0628	
   610	-0.9700	-0.0574	-1.0200	-0.0397	-0.8718	-0.1261	-1.1311	-0.1707	-1.6923	-0.2534	-1.3787	-0.0322	-0.7059	-0.0741	-0.9956	-0.0569	
   611	-0.9700	-0.0574	-1.0122	-0.0509	-0.8718	-0.1261	-1.1311	-0.1707	-1.7012	-0.2588	-1.3954	-0.0263	-0.7137	-0.0628	-1.0045	-0.0623	
   612	-0.9700	-0.0574	-1.0200	-0.0397	-0.8718	-0.1261	-1.1400	-0.1761	-1.7101	-0.2641	-1.4043	-0.0317	-0.7137	-0.0628	-1.0212	-0.0564	
   613	-0.9867	-0.0515	-1.0122	-0.0509	-0.8718	-0.1261	-1.1568	-0.1702	-1.7190	-0.2695	-1.4132	-0.0371	-0.7137	-0.0628	-1.0134	-0.0677	
   614	-0.9867	-0.0515	-1.0200	-0.0397	-0.8718	-0.1261	-1.1568	-0.1702	-1.7357	-0.2636	-1.4132	-0.0371	-0.7226	-0.0682	-1.0301	-0.0618	
   615	-0.9956	-0.0569	-1.0122	-0.0509	-0.8885	-0.1202	-1.1568	-0.1702	-1.7357	-0.2636	-1.4054	-0.0483	-0.7226	-0.0682	-1.0468	-0.0559	
   616	-1.0045	-0.0623	-1.0122	-0.0509	-0.8807	-0.1315	-1.1735	-0.1643	-1.7357	-0.2636	-1.4221	-0.0424	-0.7315	-0.0735	-1.0557	-0.0612	
   617	-1.0301	-0.0617	-1.0378	-0.0504	-0.9063	-0.1310	-1.1746	-0.1809	-1.7190	-0.2695	-1.4310	-0.0478	-0.7482	-0.0676	-1.0646	-0.0666	
   618	-1.0479	-0.0725	-1.0546	-0.0445	-0.9230	-0.1251	-1.2002	-0.1804	-1.7190	-0.2695	-1.4478	-0.0419	-0.7571	-0.0730	-1.0902	-0.0661	
   619	-1.0735	-0.0719	-1.0556	-0.0612	-0.9319	-0.1304	-1.2091	-0.1857	-1.7357	-0.2636	-1.4656	-0.0526	-0.7739	-0.0671	-1.1080	-0.0768	
   620	-1.0991	-0.0714	-1.0813	-0.0606	-0.9408	-0.1358	-1.2347	-0.1852	-1.7613	-0.2631	-1.5079	-0.0462	-0.7828	-0.0724	-1.1336	-0.0763	
   621	-1.1169	-0.0821	-1.1069	-0.0601	-0.9664	-0.1353	-1.2525	-0.1959	-1.7702	-0.2684	-1.5424	-0.0510	-0.8084	-0.0719	-1.1681	-0.0811	
   622	-1.1425	-0.0816	-1.1247	-0.0708	-0.9753	-0.1406	-1.2781	-0.1954	-1.7880	-0.2792	-1.5524	-0.0730	-0.8173	-0.0773	-1.2026	-0.0859	
   623	-1.1771	-0.0864	-1.1670	-0.0644	-1.0010	-0.1401	-1.3126	-0.2002	-1.8225	-0.2840	-1.6125	-0.0773	-0.8429	-0.0767	-1.2293	-0.1020	
   624	-1.2116	-0.0913	-1.2015	-0.0692	-1.0266	-0.1396	-1.3471	-0.2051	-1.8492	-0.3001	-1.6470	-0.0822	-0.8685	-0.0762	-1.2639	-0.1069	
   625	-1.2372	-0.0907	-1.2193	-0.0799	-1.0355	-0.1449	-1.3728	-0.2045	-1.8915	-0.2937	-1.6648	-0.0929	-0.8774	-0.0816	-1.2984	-0.1117	
   626	-1.2550	-0.1015	-1.2449	-0.0794	-1.0611	-0.1444	-1.4073	-0.2094	-1.9172	-0.2931	-1.6993	-0.0977	-0.9030	-0.0810	-1.3329	-0.1165	
   627	-1.2973	-0.0950	-1.2794	-0.0842	-1.0867	-0.1438	-1.4251	-0.2201	-1.9182	-0.3098	-1.7417	-0.0913	-0.9119	-0.0864	-1.3674	-0.1214	
   628	-1.3151	-0.1058	-1.3051	-0.0837	-1.1045	-0.1546	-1.4596	-0.2249	-1.9606	-0.3033	-1.7762	-0.0961	-0.9297	-0.0971	-1.4019	-0.1262	
   629	-1.3329	-0.1165	-1.3396	-0.0885	-1.1301	-0.1541	-1.4852	-0.2244	-1.9695	-0.3087	-1.7940	-0.1069	-0.9553	-0.0966	-1.4364	-0.1310	
   630	-1.3752	-0.1100	-1.3652	-0.0880	-1.1557	-0.1535	-1.5030	-0.2351	-1.9873	-0.3194	-1.8285	-0.1117	-0.9809	-0.0961	-1.4620	-0.1305	
   631	-1.4019	-0.1262	-1.3997	-0.0928	-1.1735	-0.1643	-1.5375	-0.2400	-2.0129	-0.3189	-1.8463	-0.1224	-1.0066	-0.0955	-1.4966	-0.1353	
   632	-1.4276	-0.1256	-1.4175	-0.1036	-1.1991	-0.1637	-1.5720	-0.2448	-2.0385	-0.3184	-1.8808	-0.1273	-1.0322	-0.0950	-1.5144	-0.1461	
   633	-1.4621	-0.1305	-1.4520	-0.1084	-1.2337	-0.1685	-1.5976	-0.2443	-2.0474	-0.3237	-1.9153	-0.1321	-1.0500	-0.1057	-1.5489	-0.1509	
   634	-1.4877	-0.1299	-1.4776	-0.1079	-1.2426	-0.1739	-1.6233	-0.2437	-2.0641	-0.3178	-1.9409	-0.1316	-1.0589	-0.1111	-1.5745	-0.1504	
   635	-1.4877	-0.1299	-1.4698	-0.1191	-1.2504	-0.1626	-1.6233	-0.2437	-2.0730	-0.3232	-1.9498	-0.1369	-1.0589	-0.1111	-1.5656	-0.1450	
   636	-1.4454	-0.1364	-1.4609	-0.1138	-1.2080	-0.1691	-1.6055	-0.2330	-2.0730	-0.3232	-1.9331	-0.1428	-1.0500	-0.1057	-1.5311	-0.1402	
   637	-1.4019	-0.1262	-1.4097	-0.1148	-1.1814	-0.1530	-1.5453	-0.2287	-2.0396	-0.3350	-1.9153	-0.1321	-1.0244	-0.1063	-1.4877	-0.1300	
   638	-1.3585	-0.1160	-1.3663	-0.1046	-1.1301	-0.1541	-1.5019	-0.2185	-2.0218	-0.3243	-1.8808	-0.1273	-1.0066	-0.0955	-1.4354	-0.1144	
   639	-1.3073	-0.1170	-1.3229	-0.0944	-1.0867	-0.1438	-1.4585	-0.2083	-1.9962	-0.3248	-1.8296	-0.1283	-0.9809	-0.0961	-1.3752	-0.1101	
   640	-1.2806	-0.1009	-1.2716	-0.0955	-1.0522	-0.1390	-1.4073	-0.2094	-1.9616	-0.3200	-1.7862	-0.1181	-0.9464	-0.0912	-1.3318	-0.0999	
   641	-1.2461	-0.0961	-1.2371	-0.0907	-1.0177	-0.1342	-1.3806	-0.1932	-1.9360	-0.3205	-1.7516	-0.1133	-0.9208	-0.0918	-1.2884	-0.0897	
   642	-1.2037	-0.1025	-1.2026	-0.0858	-0.9753	-0.1406	-1.3382	-0.1997	-1.9271	-0.3151	-1.7339	-0.1026	-0.9119	-0.0864	-1.2461	-0.0961	
   643	-1.1860	-0.0918	-1.1681	-0.0810	-0.9743	-0.1240	-1.3037	-0.1949	-1.9104	-0.3211	-1.6993	-0.0977	-0.8863	-0.0869	-1.2115	-0.0913	
   644	-1.1603	-0.0923	-1.1336	-0.0762	-0.9486	-0.1245	-1.2781	-0.1954	-1.8937	-0.3270	-1.6737	-0.0983	-0.8774	-0.0816	-1.1937	-0.0806	
   645	-1.1347	-0.0929	-1.1080	-0.0767	-0.9319	-0.1304	-1.2692	-0.1900	-1.8848	-0.3216	-1.6559	-0.0875	-0.8518	-0.0821	-1.1760	-0.0698	
   646	-1.1258	-0.0875	-1.0902	-0.0660	-0.9152	-0.1363	-1.2603	-0.1847	-1.8926	-0.3103	-1.6303	-0.0881	-0.8518	-0.0821	-1.1503	-0.0704	
   647	-1.1258	-0.0875	-1.0734	-0.0719	-0.9319	-0.1304	-1.2692	-0.1900	-1.8837	-0.3049	-1.6214	-0.0827	-0.8518	-0.0821	-1.1336	-0.0763	
   648	-1.1258	-0.0875	-1.0645	-0.0665	-0.9319	-0.1304	-1.2603	-0.1847	-1.8748	-0.2996	-1.6047	-0.0886	-0.8518	-0.0821	-1.1414	-0.0650	
   649	-1.1258	-0.0875	-1.0478	-0.0724	-0.9319	-0.1304	-1.2603	-0.1847	-1.8581	-0.3055	-1.6125	-0.0773	-0.8518	-0.0821	-1.1336	-0.0763	
   650	-1.1258	-0.0875	-1.0556	-0.0612	-0.9152	-0.1363	-1.2603	-0.1847	-1.8581	-0.3055	-1.6125	-0.0773	-0.8351	-0.0880	-1.1503	-0.0704	
   651	-1.1258	-0.0875	-1.0389	-0.0671	-0.9230	-0.1251	-1.2603	-0.1847	-1.8581	-0.3055	-1.6292	-0.0714	-0.8429	-0.0767	-1.1503	-0.0704	
   652	-1.1258	-0.0875	-1.0556	-0.0612	-0.9230	-0.1251	-1.2603	-0.1847	-1.8748	-0.2996	-1.6292	-0.0714	-0.8429	-0.0767	-1.1425	-0.0816	
   653	-1.1258	-0.0875	-1.0556	-0.0612	-0.9230	-0.1251	-1.2525	-0.1959	-1.8581	-0.3055	-1.6292	-0.0714	-0.8429	-0.0767	-1.1592	-0.0757	
   654	-1.1258	-0.0875	-1.0556	-0.0612	-0.9230	-0.1251	-1.2692	-0.1900	-1.8659	-0.2942	-1.6292	-0.0714	-0.8429	-0.0767	-1.1592	-0.0757	
   655	-1.1258	-0.0875	-1.0478	-0.0724	-0.9319	-0.1304	-1.2692	-0.1900	-1.8570	-0.2888	-1.6203	-0.0661	-0.8262	-0.0826	-1.1592	-0.0757	
   656	-1.1258	-0.0875	-1.0645	-0.0665	-0.9319	-0.1304	-1.2781	-0.1954	-1.8570	-0.2888	-1.6025	-0.0553	-0.8340	-0.0714	-1.1503	-0.0704	
   657	-1.1425	-0.0816	-1.0734	-0.0719	-0.9575	-0.1299	-1.2870	-0.2008	-1.8570	-0.2888	-1.6025	-0.0553	-0.8507	-0.0655	-1.1592	-0.0757	
   658	-1.1593	-0.0757	-1.0734	-0.0719	-0.9575	-0.1299	-1.3037	-0.1949	-1.8659	-0.2942	-1.6025	-0.0553	-0.8429	-0.0767	-1.1681	-0.0811	
   659	-1.1682	-0.0811	-1.0902	-0.0660	-0.9832	-0.1294	-1.3126	-0.2002	-1.8915	-0.2937	-1.6449	-0.0489	-0.8596	-0.0708	-1.2105	-0.0747	
   660	-1.1771	-0.0864	-1.1158	-0.0654	-0.9921	-0.1347	-1.3382	-0.1997	-1.8915	-0.2937	-1.6370	-0.0601	-0.8685	-0.0762	-1.2361	-0.0741	
   661	-1.2027	-0.0859	-1.1168	-0.0821	-1.0099	-0.1455	-1.3639	-0.1992	-1.9083	-0.2878	-1.6627	-0.0596	-0.8852	-0.0703	-1.2539	-0.0849	
   662	-1.2283	-0.0854	-1.1425	-0.0816	-1.0266	-0.1396	-1.3817	-0.2099	-1.9250	-0.2819	-1.6972	-0.0644	-0.9108	-0.0698	-1.2884	-0.0897	
   663	-1.2539	-0.0848	-1.1848	-0.0751	-1.0444	-0.1503	-1.4073	-0.2094	-1.9250	-0.2819	-1.7228	-0.0639	-0.9197	-0.0751	-1.3140	-0.0891	
   664	-1.2717	-0.0956	-1.2026	-0.0858	-1.0700	-0.1498	-1.4251	-0.2201	-1.9339	-0.2872	-1.7484	-0.0634	-0.9286	-0.0805	-1.3318	-0.0999	
   665	-1.2973	-0.0950	-1.2204	-0.0966	-1.0789	-0.1551	-1.4674	-0.2136	-1.9595	-0.2867	-1.7740	-0.0628	-0.9454	-0.0746	-1.3574	-0.0993	
   666	-1.3229	-0.0945	-1.2460	-0.0960	-1.1123	-0.1433	-1.4930	-0.2131	-1.9773	-0.2974	-1.7918	-0.0736	-0.9543	-0.0800	-1.3752	-0.1101	
   667	-1.3318	-0.0998	-1.2716	-0.0955	-1.1212	-0.1487	-1.5186	-0.2126	-2.0029	-0.2969	-1.8174	-0.0730	-0.9631	-0.0853	-1.4008	-0.1095	
   668	-1.3407	-0.1052	-1.2972	-0.0950	-1.1468	-0.1481	-1.5197	-0.2292	-2.0118	-0.3023	-1.8263	-0.0784	-0.9888	-0.0848	-1.4265	-0.1090	
   669	-1.3663	-0.1047	-1.3061	-0.1003	-1.1557	-0.1535	-1.5453	-0.2287	-2.0374	-0.3017	-1.8520	-0.0779	-1.0144	-0.0843	-1.4521	-0.1085	
   670	-1.3752	-0.1100	-1.3318	-0.0998	-1.1814	-0.1530	-1.5709	-0.2281	-2.0374	-0.3017	-1.8530	-0.0945	-1.0233	-0.0896	-1.4699	-0.1192	
   671	-1.3841	-0.1154	-1.3407	-0.1052	-1.1735	-0.1643	-1.5798	-0.2335	-2.0541	-0.2958	-1.8698	-0.0886	-1.0233	-0.0896	-1.5033	-0.1074	
   672	-1.3920	-0.1041	-1.3328	-0.1165	-1.1814	-0.1530	-1.5877	-0.2222	-2.0374	-0.3017	-1.8698	-0.0886	-1.0233	-0.0896	-1.4866	-0.1133	
   673	-1.3663	-0.1047	-1.3407	-0.1052	-1.1557	-0.1535	-1.5620	-0.2228	-2.0285	-0.2964	-1.8609	-0.0832	-1.0144	-0.0843	-1.4521	-0.1085	
   674	-1.3151	-0.1058	-1.2894	-0.1062	-1.1212	-0.1487	-1.5186	-0.2126	-2.0196	-0.2910	-1.8352	-0.0838	-0.9966	-0.0735	-1.4087	-0.0983	
   675	-1.2795	-0.0843	-1.2460	-0.0960	-1.0778	-0.1385	-1.4585	-0.2083	-1.9940	-0.2915	-1.7918	-0.0736	-0.9621	-0.0687	-1.3563	-0.0827	
   676	-1.2116	-0.0913	-1.1859	-0.0918	-1.0266	-0.1396	-1.4062	-0.1927	-1.9606	-0.3033	-1.7573	-0.0687	-0.9197	-0.0751	-1.2962	-0.0784	
   677	-1.1771	-0.0864	-1.1425	-0.0816	-0.9921	-0.1347	-1.3550	-0.1938	-1.9261	-0.2985	-1.7061	-0.0698	-0.9019	-0.0644	-1.2361	-0.0741	
   678	-1.1425	-0.0816	-1.1001	-0.0880	-0.9575	-0.1299	-1.3204	-0.1890	-1.9083	-0.2878	-1.6794	-0.0537	-0.8763	-0.0649	-1.2094	-0.0580	
   679	-1.1080	-0.0768	-1.0734	-0.0719	-0.9319	-0.1304	-1.2859	-0.1841	-1.8737	-0.2829	-1.6449	-0.0489	-0.8585	-0.0542	-1.1749	-0.0532	
   680	-1.0902	-0.0660	-1.0311	-0.0783	-0.9063	-0.1310	-1.2514	-0.1793	-1.8648	-0.2776	-1.6025	-0.0553	-0.8329	-0.0547	-1.1404	-0.0483	
   681	-1.0813	-0.0607	-1.0133	-0.0676	-0.8974	-0.1256	-1.2425	-0.1739	-1.8481	-0.2835	-1.5936	-0.0499	-0.8240	-0.0494	-1.1315	-0.0430	
   682	-1.0646	-0.0666	-0.9966	-0.0735	-0.8885	-0.1202	-1.2336	-0.1685	-1.8481	-0.2835	-1.5680	-0.0505	-0.8151	-0.0440	-1.1147	-0.0489	
   683	-1.0646	-0.0666	-0.9877	-0.0681	-0.8885	-0.1202	-1.2336	-0.1685	-1.8481	-0.2835	-1.5680	-0.0505	-0.7984	-0.0499	-1.1147	-0.0489	
   684	-1.0646	-0.0666	-0.9877	-0.0681	-0.8885	-0.1202	-1.2336	-0.1685	-1.8481	-0.2835	-1.5680	-0.0505	-0.7984	-0.0499	-1.1226	-0.0376	
   685	-1.0646	-0.0666	-0.9788	-0.0628	-0.8885	-0.1202	-1.2169	-0.1745	-1.8481	-0.2835	-1.5680	-0.0505	-0.7984	-0.0499	-1.1226	-0.0376	
   686	-1.0646	-0.0666	-0.9788	-0.0628	-0.8885	-0.1202	-1.2247	-0.1632	-1.8481	-0.2835	-1.5680	-0.0505	-0.8062	-0.0386	-1.1058	-0.0435	
   687	-1.0646	-0.0666	-0.9621	-0.0687	-0.8885	-0.1202	-1.2080	-0.1691	-1.8481	-0.2835	-1.5680	-0.0505	-0.7895	-0.0445	-1.1058	-0.0435	
   688	-1.0646	-0.0666	-0.9699	-0.0574	-0.8796	-0.1149	-1.2080	-0.1691	-1.8481	-0.2835	-1.5847	-0.0446	-0.7806	-0.0392	-1.1226	-0.0376	
   689	-1.0646	-0.0666	-0.9699	-0.0574	-0.8796	-0.1149	-1.2080	-0.1691	-1.8481	-0.2835	-1.5680	-0.0505	-0.7806	-0.0392	-1.1147	-0.0489	
   690	-1.0646	-0.0666	-0.9621	-0.0687	-0.8796	-0.1149	-1.2080	-0.1691	-1.8570	-0.2888	-1.5847	-0.0446	-0.7806	-0.0392	-1.1315	-0.0430	
   691	-1.0735	-0.0719	-0.9621	-0.0687	-0.8796	-0.1149	-1.1991	-0.1637	-1.8737	-0.2829	-1.5936	-0.0499	-0.7806	-0.0392	-1.1482	-0.0371	
   692	-1.0902	-0.0660	-0.9788	-0.0628	-0.8796	-0.1149	-1.2158	-0.1578	-1.8737	-0.2829	-1.6104	-0.0440	-0.7806	-0.0392	-1.1571	-0.0424	
   693	-1.0991	-0.0714	-0.9955	-0.0569	-0.8963	-0.1090	-1.2080	-0.1691	-1.8737	-0.2829	-1.6025	-0.0553	-0.7973	-0.0333	-1.1660	-0.0478	
   694	-1.1080	-0.0768	-1.0044	-0.0622	-0.9052	-0.1143	-1.2247	-0.1632	-1.8826	-0.2883	-1.6449	-0.0489	-0.8062	-0.0386	-1.1916	-0.0473	
   695	-1.1336	-0.0762	-1.0300	-0.0617	-0.9141	-0.1197	-1.2336	-0.1685	-1.8994	-0.2824	-1.6538	-0.0542	-0.8062	-0.0386	-1.2005	-0.0526	
   696	-1.1593	-0.0757	-1.0389	-0.0671	-0.9476	-0.1079	-1.2592	-0.1680	-1.9083	-0.2878	-1.6627	-0.0596	-0.8229	-0.0327	-1.2261	-0.0521	
   697	-1.1849	-0.0752	-1.0567	-0.0778	-0.9565	-0.1132	-1.2848	-0.1675	-1.9339	-0.2872	-1.6883	-0.0591	-0.8318	-0.0381	-1.2517	-0.0516	
   698	-1.1938	-0.0805	-1.0823	-0.0773	-0.9743	-0.1240	-1.3026	-0.1782	-1.9428	-0.2926	-1.6972	-0.0644	-0.8407	-0.0435	-1.2606	-0.0569	
   699	-1.2194	-0.0800	-1.1080	-0.0767	-0.9999	-0.1234	-1.3283	-0.1777	-1.9684	-0.2921	-1.7228	-0.0639	-0.8663	-0.0429	-1.2862	-0.0564	
   700	-1.2450	-0.0794	-1.1168	-0.0821	-1.0255	-0.1229	-1.3372	-0.1830	-1.9773	-0.2974	-1.7484	-0.0634	-0.8831	-0.0370	-1.2951	-0.0618	
   701	-1.2539	-0.0848	-1.1425	-0.0816	-1.0511	-0.1224	-1.3795	-0.1766	-1.9940	-0.2915	-1.7573	-0.0687	-0.9087	-0.0365	-1.3208	-0.0612	
   702	-1.2795	-0.0843	-1.1681	-0.0810	-1.0600	-0.1277	-1.3973	-0.1873	-2.0107	-0.2856	-1.7996	-0.0623	-0.9176	-0.0418	-1.3385	-0.0720	
   703	-1.2973	-0.0950	-1.1859	-0.0918	-1.0778	-0.1385	-1.4229	-0.1868	-2.0196	-0.2910	-1.8085	-0.0677	-0.9265	-0.0472	-1.3642	-0.0714	
   704	-1.3229	-0.0945	-1.2204	-0.0966	-1.1034	-0.1379	-1.4574	-0.1916	-2.0452	-0.2904	-1.8431	-0.0725	-0.9521	-0.0467	-1.3820	-0.0822	
   705	-1.3318	-0.0998	-1.2382	-0.1073	-1.1290	-0.1374	-1.4752	-0.2024	-2.0541	-0.2958	-1.8520	-0.0779	-0.9610	-0.0520	-1.4076	-0.0816	
   706	-1.3407	-0.1052	-1.2638	-0.1068	-1.1468	-0.1481	-1.5097	-0.2072	-2.0719	-0.3066	-1.8687	-0.0720	-0.9777	-0.0461	-1.4410	-0.0698	
   707	-1.3574	-0.0993	-1.2894	-0.1062	-1.1636	-0.1422	-1.5186	-0.2126	-2.0808	-0.3119	-1.8776	-0.0773	-0.9866	-0.0515	-1.4410	-0.0698	
   708	-1.3318	-0.0998	-1.2727	-0.1122	-1.1468	-0.1481	-1.5265	-0.2013	-2.0808	-0.3119	-1.8687	-0.0720	-0.9777	-0.0461	-1.4154	-0.0704	
   709	-1.2884	-0.0896	-1.2382	-0.1073	-1.1290	-0.1374	-1.4752	-0.2024	-2.0719	-0.3066	-1.8342	-0.0671	-0.9521	-0.0467	-1.3720	-0.0602	
   710	-1.2528	-0.0682	-1.1870	-0.1084	-1.0778	-0.1385	-1.4318	-0.1922	-2.0541	-0.2958	-1.8075	-0.0510	-0.9265	-0.0472	-1.3197	-0.0446	
   711	-1.1927	-0.0639	-1.1435	-0.0982	-1.0433	-0.1336	-1.3717	-0.1879	-2.0196	-0.2910	-1.7473	-0.0467	-0.8920	-0.0424	-1.2428	-0.0462	
   712	-1.1493	-0.0537	-1.1001	-0.0880	-0.9921	-0.1347	-1.3283	-0.1777	-1.9773	-0.2974	-1.7128	-0.0419	-0.8574	-0.0375	-1.1994	-0.0360	
   713	-1.0980	-0.0547	-1.0489	-0.0891	-0.9575	-0.1299	-1.2681	-0.1734	-1.9595	-0.2867	-1.6527	-0.0376	-0.8229	-0.0327	-1.1393	-0.0317	
   714	-1.0635	-0.0499	-1.0144	-0.0842	-0.9230	-0.1251	-1.2414	-0.1573	-1.9339	-0.2872	-1.6271	-0.0381	-0.7973	-0.0333	-1.1048	-0.0269	
   715	-1.0457	-0.0392	-0.9799	-0.0794	-0.9052	-0.1143	-1.1902	-0.1583	-1.9083	-0.2878	-1.6015	-0.0387	-0.7717	-0.0338	-1.0791	-0.0274	
   716	-1.0201	-0.0397	-0.9621	-0.0687	-0.8796	-0.1149	-1.1724	-0.1476	-1.8905	-0.2770	-1.5837	-0.0279	-0.7539	-0.0230	-1.0702	-0.0220	
   717	-1.0112	-0.0343	-0.9365	-0.0692	-0.8618	-0.1041	-1.1379	-0.1428	-1.8648	-0.2776	-1.5580	-0.0285	-0.7450	-0.0177	-1.0446	-0.0226	
   718	-0.9945	-0.0403	-0.9276	-0.0638	-0.8362	-0.1047	-1.1290	-0.1374	-1.8470	-0.2668	-1.5324	-0.0290	-0.7361	-0.0123	-1.0446	-0.0226	
   719	-0.9945	-0.0403	-0.9276	-0.0638	-0.8273	-0.0993	-1.1123	-0.1433	-1.8214	-0.2674	-1.5402	-0.0177	-0.7194	-0.0182	-1.0702	-0.0220	
   720	-1.0034	-0.0456	-0.9197	-0.0751	-0.8273	-0.0993	-1.1123	-0.1433	-1.8125	-0.2620	-1.5491	-0.0231	-0.7194	-0.0182	-1.0969	-0.0381	
   721	-1.0201	-0.0397	-0.9365	-0.0692	-0.8351	-0.0880	-1.1123	-0.1433	-1.8203	-0.2507	-1.5659	-0.0172	-0.7027	-0.0241	-1.1315	-0.0430	
   722	-1.0123	-0.0510	-0.9365	-0.0692	-0.8184	-0.0939	-1.1123	-0.1433	-1.8036	-0.2566	-1.5580	-0.0285	-0.7105	-0.0128	-1.1582	-0.0591	
   723	-1.0123	-0.0510	-0.9365	-0.0692	-0.8262	-0.0826	-1.0956	-0.1492	-1.7947	-0.2513	-1.5580	-0.0285	-0.6938	-0.0188	-1.1760	-0.0698	
   724	-0.9867	-0.0515	-0.9276	-0.0638	-0.8095	-0.0886	-1.1034	-0.1379	-1.7937	-0.2346	-1.5324	-0.0290	-0.6849	-0.0134	-1.2016	-0.0693	
   725	-0.9689	-0.0408	-0.9187	-0.0585	-0.8095	-0.0886	-1.0778	-0.1385	-1.7680	-0.2351	-1.5235	-0.0236	-0.6760	-0.0080	-1.2105	-0.0747	
   726	-0.9600	-0.0354	-0.9187	-0.0585	-0.8184	-0.0939	-1.0856	-0.1272	-1.7670	-0.2185	-1.4890	-0.0188	-0.6504	-0.0086	-1.2272	-0.0687	
   727	-0.9511	-0.0301	-0.9108	-0.0697	-0.8351	-0.0880	-1.0856	-0.1272	-1.7324	-0.2137	-1.4790	 0.0032	-0.6493	 0.0081	-1.2361	-0.0741	
   728	-0.9333	-0.0193	-0.9197	-0.0751	-0.8362	-0.1047	-1.0778	-0.1385	-1.7225	-0.1917	-1.4523	 0.0193	-0.6404	 0.0135	-1.2283	-0.0854	
   729	-0.9077	-0.0199	-0.9286	-0.0805	-0.8618	-0.1041	-1.1112	-0.1267	-1.6969	-0.1922	-1.4256	 0.0354	-0.6315	 0.0188	-1.2283	-0.0854	
   730	 3.5108	 0.8709	 2.0582	 1.0181	 2.1035	 0.1337	 2.8896	-0.2717	-1.6958	-0.1755	-1.3911	 0.0403	-0.6148	 0.0129	-1.2450	-0.0795	
   731	11.1571	 3.1495	 8.0813	 3.5808	 7.0946	 3.0014	10.1890	 0.7419	-1.6780	-0.1648	-1.3723	 0.0676	-0.6226	 0.0242	-1.2539	-0.0849	
   732	 7.9752	 5.2442	 7.4627	 5.3828	 8.1446	 5.2185	 8.0522	 2.0757	-1.6691	-0.1594	-1.3623	 0.0897	-0.6137	 0.0296	-1.2628	-0.0902	
   733	13.3131	 8.4492	12.7927	 8.5991	13.4657	 8.4294	13.3656	 5.2978	-1.2595	-0.0402	-0.4382	 0.2314	-0.2920	 0.1117	-1.2086	 0.0864	
   734	18.6097	11.6772	18.1050	11.8045	18.7869	11.6402	18.6946	 8.4974	-0.9866	-0.0515	 0.0461	 0.3157	-0.1262	 0.1638	-1.1274	 0.1514	
   735	23.9231	14.8994	23.4518	15.0149	21.0593	19.2654	34.5323	12.8877	-1.5604	 0.0661	 0.0717	 0.3151	-0.1262	 0.1638	-1.1452	 0.1407	
   736	29.2777	18.0984	24.5031	24.3825	35.3415	19.3102	39.8289	16.1158	-1.9247	 0.1182	-0.8632	 0.5348	-0.2052	 0.1321	-1.1997	 0.0918	
   737	29.5693	28.5432	42.2037	23.2110	40.6637	22.5377	45.1422	19.3379	-2.0461	 0.0929	-1.2223	 0.2701	-0.3432	 0.1128	-1.2552	 0.0263	
   738	51.7772	25.8048	47.5438	26.4493	46.0262	25.7255	50.5135	22.5310	-2.0404	 0.0484	-1.4292	 0.1133	-0.4646	 0.0876	-1.3019	-0.0338	
   739	57.0916	29.0436	53.1314	29.5490	52.0182	28.7334	56.2114	25.6173	-1.9835	 0.0027	-1.4769	 0.0365	-0.5514	 0.0672	-1.3474	-0.0773	
   740	53.0201	31.5292	55.4568	30.0725	52.6544	34.3316	68.2035	26.8714	-1.9088	-0.0322	-1.4780	 0.0199	-0.6293	 0.0521	-1.4087	-0.0983	
   741	59.1233	35.1959	73.7671	28.6770	66.9316	33.1097	78.1905	25.6839	-1.8341	-0.0671	-1.4513	 0.0360	-0.6727	 0.0419	-1.4442	-0.1198	
   742	62.3965	37.2830	108.4500	19.5985	82.0937	32.6138	129.3136	11.1544	-1.7840	-0.0848	-1.4068	 0.0628	-0.7073	 0.0371	-1.4788	-0.1246	
   743	64.3201	37.1482	195.2574	-10.8589	95.4431	29.8723	189.5834	-10.0120	-1.7338	-0.1025	-1.3701	 0.1009	-0.7418	 0.0323	-1.4966	-0.1353	
   744	66.6845	35.6318	196.1254	-12.1105	103.4054	26.5994	191.4758	-12.7408	-1.6915	-0.1090	-1.3167	 0.1332	-0.7251	 0.0264	-1.5044	-0.1240	
   745	65.8303	34.0607	197.2906	-13.7907	101.0575	26.6542	192.8522	-14.7254	-1.6569	-0.1041	-1.2722	 0.1600	-0.7162	 0.0317	-1.4788	-0.1246	
   746	59.8602	34.8249	197.2906	-13.7907	112.9290	22.3492	193.3996	-15.5148	-1.6224	-0.0993	-1.2032	 0.1697	-0.6816	 0.0366	-1.4354	-0.1144	
   747	59.1656	34.1338	197.1186	-13.5426	135.7187	14.7315	193.3996	-15.5148	-1.5879	-0.0945	-1.1587	 0.1965	-0.6471	 0.0414	-1.3919	-0.1042	
   748	60.9316	34.3357	197.1186	-13.5426	147.3019	10.8603	193.4935	-15.6501	-1.5701	-0.0837	-1.0986	 0.2008	-0.6204	 0.0575	-1.3485	-0.0940	
   749	62.1841	34.0038	197.5487	-14.1628	125.2556	18.2069	193.4935	-15.6501	-1.5278	-0.0902	-1.0384	 0.2051	-0.5692	 0.0564	-1.2884	-0.0897	
   750	61.3598	34.0822	197.8849	-14.6477	108.8659	22.4567	194.6117	-17.2626	-1.5189	-0.0848	-0.9950	 0.2153	-0.5347	 0.0612	-1.2617	-0.0736	
   751	58.9402	33.8219	197.9631	-14.7604	103.7253	23.8814	143.6083	-0.3576	-1.4844	-0.0800	-0.9260	 0.2250	-0.4913	 0.0714	-1.2183	-0.0634	
   752	56.5511	33.8998	197.5487	-14.1628	107.4990	23.1354	135.5541	 2.1560	-1.4666	-0.0692	-0.8826	 0.2352	-0.4568	 0.0763	-1.1671	-0.0645	
   753	54.9963	34.4491	197.2046	-13.6667	111.0307	22.0835	143.6865	-0.4704	-1.4488	-0.0585	-0.8559	 0.2513	-0.4222	 0.0811	-1.1493	-0.0537	
   754	54.9103	34.5732	197.1186	-13.5426	108.4123	23.1107	195.1748	-18.0745	-1.4399	-0.0531	-0.8303	 0.2507	-0.4044	 0.0919	-1.1325	-0.0596	
   755	57.0297	35.6121	196.1254	-12.1105	116.4733	20.5691	193.8454	-16.1575	-1.4232	-0.0590	-0.8214	 0.2561	-0.3955	 0.0972	-1.1325	-0.0596	
   756	58.9482	36.8498	196.3131	-12.3812	111.1245	21.9482	193.4935	-15.6501	-1.4232	-0.0590	-0.8047	 0.2502	-0.3866	 0.1026	-1.1325	-0.0596	
   757	61.7565	38.6243	196.4069	-12.5165	104.5652	23.7804	193.5795	-15.7741	-1.4232	-0.0590	-0.8047	 0.2502	-0.3699	 0.0967	-1.1493	-0.0537	
   758	59.9302	38.0181	197.7989	-14.5236	95.7174	26.0551	194.5257	-17.1385	-1.4232	-0.0590	-0.7958	 0.2556	-0.3610	 0.1021	-1.1493	-0.0537	
   759	60.5237	37.5445	198.5262	-15.5723	92.3015	27.1769	195.0106	-17.8377	-1.4232	-0.0590	-0.7958	 0.2556	-0.3521	 0.1074	-1.1493	-0.0537	
   760	58.0090	36.4750	199.5819	-17.0946	86.1879	28.3664	126.2306	 5.5353	-1.4232	-0.0590	-0.8036	 0.2668	-0.3600	 0.1187	-1.1493	-0.0537	
   761	56.1641	36.2414	199.8713	-17.5118	83.1438	29.0248	115.7222	 8.8394	-1.4232	-0.0590	-0.7869	 0.2609	-0.3511	 0.1241	-1.1660	-0.0478	
   762	56.6060	36.8600	199.2144	-16.5646	83.0656	29.1375	115.4251	 9.2679	-1.4232	-0.0590	-0.7947	 0.2722	-0.3422	 0.1294	-1.1582	-0.0591	
   763	58.3070	36.7188	198.7608	-15.9106	85.7109	29.0542	154.5961	-3.3884	-1.4399	-0.0531	-0.7947	 0.2722	-0.3254	 0.1235	-1.1749	-0.0532	
   764	57.9158	35.2991	199.5115	-16.9931	82.3875	29.6240	125.5424	 6.5276	-1.4399	-0.0531	-0.7947	 0.2722	-0.3333	 0.1348	-1.1838	-0.0585	
   765	56.1210	34.5200	133.0678	 6.0141	81.0500	30.0966	127.8161	 6.2521	-1.4488	-0.0585	-0.8036	 0.2668	-0.3422	 0.1294	-1.2094	-0.0580	
   766	55.3258	34.5200	138.6787	 4.9852	87.6686	29.1798	173.8884	-9.2937	-1.4577	-0.0639	-0.8292	 0.2674	-0.3422	 0.1294	-1.2183	-0.0634	
   767	54.5808	34.5023	146.0995	 3.3849	97.7187	26.5910	193.4935	-15.6501	-1.4833	-0.0633	-0.8381	 0.2620	-0.3589	 0.1353	-1.2439	-0.0628	
   768	55.2263	35.2277	196.4930	-12.6405	125.6466	17.6431	193.4935	-15.6501	-1.5089	-0.0628	-0.8637	 0.2625	-0.3678	 0.1300	-1.2695	-0.0623	
   769	57.8090	35.7624	196.0316	-11.9752	143.4235	11.5751	193.3996	-15.5148	-1.5345	-0.0623	-0.8726	 0.2572	-0.3767	 0.1246	-1.2784	-0.0677	
   770	59.3646	35.8854	195.5545	-11.2874	199.0169	-7.0708	192.5707	-14.3195	-1.5434	-0.0676	-0.9071	 0.2523	-0.4101	 0.1364	-1.3129	-0.0725	
   771	59.3646	35.8854	195.7422	-11.5580	198.8058	-6.7663	192.4690	-14.1729	-1.5523	-0.0730	-0.9249	 0.2416	-0.4190	 0.1310	-1.3385	-0.0720	
   772	57.4077	35.3764	196.9465	-13.2945	125.2556	18.2069	193.1337	-15.1314	-1.5690	-0.0671	-0.9338	 0.2362	-0.4279	 0.1257	-1.3731	-0.0768	
   773	56.4699	34.8905	177.3336	-6.9269	111.7202	22.5635	194.1034	-16.5296	-1.5779	-0.0725	-0.9850	 0.2373	-0.4535	 0.1262	-1.3909	-0.0875	
   774	56.7479	35.0902	197.4626	-14.0388	107.4505	24.4977	193.5795	-15.7741	-1.6036	-0.0719	-1.0196	 0.2325	-0.4624	 0.1208	-1.4254	-0.0924	
   775	57.6971	34.9592	197.4626	-14.0388	105.6457	25.8079	192.0780	-13.6091	-1.6292	-0.0714	-1.0374	 0.2217	-0.4880	 0.1214	-1.4599	-0.0972	
   776	56.9340	34.5307	157.7833	-0.6495	101.3323	27.3319	192.1797	-13.7557	-1.6548	-0.0708	-1.0886	 0.2228	-0.5137	 0.1219	-1.4944	-0.1020	
   777	55.0818	34.0529	120.2658	11.6610	93.9908	29.3639	192.7583	-14.5901	-1.6726	-0.0816	-1.1142	 0.2234	-0.5225	 0.1166	-1.5289	-0.1069	
   778	53.9474	33.8322	109.6719	14.8336	89.8743	29.9670	192.7583	-14.5901	-1.6982	-0.0810	-1.1487	 0.2185	-0.5571	 0.1117	-1.5634	-0.1117	
   779	54.6585	33.0616	103.2456	16.4741	86.3963	30.3955	192.9460	-14.8608	-1.7071	-0.0864	-1.1743	 0.2191	-0.5660	 0.1064	-1.5891	-0.1112	
   780	56.4509	32.3518	98.8082	17.6673	84.0264	30.3730	193.6733	-15.9094	-1.7327	-0.0859	-1.1832	 0.2137	-0.5749	 0.1010	-1.5979	-0.1165	
   781	58.4668	32.3206	101.4505	16.8785	84.3626	29.8882	193.9314	-16.2816	-1.7327	-0.0859	-1.2000	 0.2196	-0.5916	 0.1069	-1.5979	-0.1165	
   782	57.3550	32.4495	97.9556	17.9686	84.8642	29.7109	193.3996	-15.5148	-1.7160	-0.0918	-1.1743	 0.2191	-0.5827	 0.1123	-1.5634	-0.1117	
   783	57.5693	32.7228	98.6753	17.8590	86.6344	29.4516	193.0399	-14.9961	-1.7071	-0.0864	-1.1654	 0.2244	-0.5660	 0.1064	-1.5289	-0.1069	
   784	57.8619	32.8833	98.7378	17.7688	86.6344	29.4516	192.9460	-14.8608	-1.6982	-0.0810	-1.1231	 0.2180	-0.5314	 0.1112	-1.4855	-0.0967	
   785	57.1549	33.3204	101.3098	17.0814	86.3764	29.8237	192.3752	-14.0376	-1.6726	-0.0816	-1.0886	 0.2228	-0.5058	 0.1106	-1.4343	-0.0977	
   786	55.8514	34.0534	112.3601	13.9604	90.0512	29.0021	192.6645	-14.4548	-1.6470	-0.0821	-1.0630	 0.2223	-0.4802	 0.1101	-1.4076	-0.0816	
   787	53.9312	34.6382	126.2911	10.0344	90.9691	28.3883	193.4935	-15.6501	-1.6292	-0.0714	-1.0285	 0.2271	-0.4624	 0.1208	-1.3652	-0.0881	
   788	53.1263	35.0162	145.8571	 3.7345	93.1306	27.4373	193.7593	-16.0335	-1.6036	-0.0719	-1.0028	 0.2266	-0.4535	 0.1262	-1.3385	-0.0720	
   789	53.5011	35.2583	197.1186	-13.5426	102.5366	25.5953	193.1337	-15.1314	-1.5858	-0.0612	-0.9850	 0.2373	-0.4279	 0.1257	-1.2962	-0.0784	
   790	54.5662	35.0693	196.9465	-13.2945	111.1258	23.4205	192.7583	-14.5901	-1.5690	-0.0671	-0.9427	 0.2309	-0.4023	 0.1251	-1.2784	-0.0677	
   791	54.9030	34.8567	197.1186	-13.5426	112.4285	23.0709	192.7583	-14.5901	-1.5601	-0.0617	-0.9338	 0.2362	-0.3934	 0.1305	-1.2695	-0.0623	
   792	54.1652	34.5555	197.3766	-13.9147	118.1802	21.8390	191.3664	-12.5830	-1.5601	-0.0617	-0.9416	 0.2475	-0.3845	 0.1359	-1.2606	-0.0569	
   793	54.9103	34.5732	197.6347	-14.2868	121.7304	20.9422	190.2793	-11.0156	-1.5690	-0.0671	-0.9416	 0.2475	-0.3845	 0.1359	-1.2695	-0.0623	
   794	53.6966	34.4486	138.3737	 5.4250	103.0638	25.9454	191.4758	-12.7408	-1.5690	-0.0671	-0.9416	 0.2475	-0.3845	 0.1359	-1.2862	-0.0564	
   795	52.8798	34.1157	117.3808	11.8716	94.4897	27.8255	191.6792	-13.0340	-1.5858	-0.0612	-0.9338	 0.2362	-0.3845	 0.1359	-1.2862	-0.0564	
   796	52.2898	33.9836	110.3210	13.8976	89.6985	28.8372	191.8825	-13.3272	-1.5858	-0.0612	-0.9505	 0.2421	-0.3845	 0.1359	-1.2951	-0.0618	
   797	54.3300	34.5909	127.4251	 8.3994	93.8401	27.9613	192.0780	-13.6091	-1.6025	-0.0553	-0.9594	 0.2368	-0.4012	 0.1418	-1.3040	-0.0671	
   798	55.8514	34.0534	117.8109	11.2514	89.1659	28.9317	193.5795	-15.7741	-1.6025	-0.0553	-0.9761	 0.2427	-0.4012	 0.1418	-1.3208	-0.0612	
   799	53.4194	33.3377	95.7054	17.6824	80.3111	29.7787	110.4966	10.9326	-1.6025	-0.0553	-0.9672	 0.2481	-0.3845	 0.1359	-1.3208	-0.0612	
   800	53.5702	32.6289	88.4903	19.4229	75.6155	30.4162	94.8231	15.1507	-1.6114	-0.0606	-0.9929	 0.2486	-0.4012	 0.1418	-1.3297	-0.0666	
   801	55.0115	32.0430	87.3993	19.7402	74.7286	30.5848	94.1034	15.2603	-1.6114	-0.0606	-0.9929	 0.2486	-0.4012	 0.1418	-1.3464	-0.0607	
   802	55.1751	32.0618	89.0207	19.2950	75.0629	30.4667	95.6758	14.8494	-1.6203	-0.0660	-1.0018	 0.2432	-0.4101	 0.1364	-1.3553	-0.0661	
   803	54.8780	32.4903	93.4845	17.7179	74.1030	30.4312	93.3546	15.4482	-1.6459	-0.0655	-1.0196	 0.2325	-0.4268	 0.1423	-1.3731	-0.0768	
   804	54.0272	32.9527	99.2615	16.0854	75.4774	29.8690	93.0809	15.8429	-1.6548	-0.0708	-1.0619	 0.2389	-0.4357	 0.1370	-1.3987	-0.0763	
   805	55.3153	33.1701	105.3780	14.5459	78.3802	29.1414	96.0937	15.2296	-1.6804	-0.0703	-1.0708	 0.2336	-0.4446	 0.1316	-1.4332	-0.0811	
   806	55.9201	33.6630	114.7708	12.1041	82.9058	28.3853	108.0423	11.3230	-1.6893	-0.0757	-1.0886	 0.2228	-0.4702	 0.1321	-1.4510	-0.0918	
   807	55.0031	33.8934	113.2203	12.7200	83.5192	28.4835	109.4466	10.8268	-1.7060	-0.0698	-1.1142	 0.2234	-0.4791	 0.1268	-1.4766	-0.0913	
   808	55.6793	34.3014	123.0853	 9.7795	86.2661	28.2536	121.4604	 7.1355	-1.7316	-0.0692	-1.1565	 0.2298	-0.5048	 0.1273	-1.5111	-0.0961	
   809	56.5638	34.7552	142.5574	 3.6148	91.0835	27.5136	163.1978	-6.6914	-1.7494	-0.0800	-1.1911	 0.2250	-0.5304	 0.1278	-1.5456	-0.1010	
   810	57.6186	35.7276	197.3766	-13.9147	104.4142	25.1448	193.2197	-15.2554	-1.7751	-0.0794	-1.2089	 0.2142	-0.5560	 0.1284	-1.5802	-0.1058	
   811	58.3218	36.0239	195.8439	-11.7046	127.0712	18.1188	191.9841	-13.4738	-1.7929	-0.0902	-1.2512	 0.2207	-0.5738	 0.1176	-1.5979	-0.1165	
   812	58.6228	35.9176	195.4529	-11.1408	146.5589	11.9316	190.2793	-11.0156	-1.8185	-0.0896	-1.2779	 0.2046	-0.5994	 0.1182	-1.6325	-0.1214	
   813	58.5252	35.7308	195.7422	-11.5580	138.3092	14.7271	189.5834	-10.0120	-1.8441	-0.0891	-1.2957	 0.1938	-0.6250	 0.1187	-1.6581	-0.1208	
   814	56.4804	35.1847	197.3766	-13.9147	105.7131	24.4730	190.8346	-11.8162	-1.8697	-0.0886	-1.3213	 0.1944	-0.6428	 0.1080	-1.6926	-0.1257	
   815	54.9739	35.0274	198.0413	-14.8732	102.7243	25.3247	191.8825	-13.3272	-1.8786	-0.0939	-1.3469	 0.1949	-0.6684	 0.1085	-1.7104	-0.1364	
   816	56.1962	35.2851	198.2056	-15.1100	103.5564	25.2350	192.8522	-14.7254	-1.9131	-0.0988	-1.3647	 0.1842	-0.6862	 0.0978	-1.7449	-0.1412	
   817	56.1024	35.4204	158.5731	-1.7884	98.1100	26.9550	193.4935	-15.6501	-1.9309	-0.1095	-1.4159	 0.1852	-0.7118	 0.0983	-1.7794	-0.1461	
   818	57.2810	36.8514	198.7608	-15.9106	96.4381	27.5457	193.2197	-15.2554	-1.9487	-0.1202	-1.4337	 0.1745	-0.7375	 0.0988	-1.8050	-0.1455	
   819	60.6491	37.7641	198.4480	-15.4596	95.8401	27.5527	192.8522	-14.7254	-1.9576	-0.1256	-1.4594	 0.1750	-0.7296	 0.0876	-1.8139	-0.1509	
   820	62.1462	37.6438	198.4480	-15.4596	94.3958	27.9608	192.5707	-14.3195	-1.9654	-0.1143	-1.4505	 0.1804	-0.7296	 0.0876	-1.8050	-0.1455	
   821	60.7592	36.8229	198.9876	-16.2376	89.6985	28.8372	193.2197	-15.2554	-1.9565	-0.1090	-1.4248	 0.1799	-0.7040	 0.0870	-1.7616	-0.1353	
   822	58.2202	36.1705	199.2848	-16.6661	86.0994	29.6406	193.0399	-14.9961	-1.9309	-0.1095	-1.3903	 0.1847	-0.6784	 0.0865	-1.7104	-0.1364	
   823	56.6387	36.1759	198.1274	-14.9972	96.3875	26.7633	192.9460	-14.8608	-1.9053	-0.1100	-1.3558	 0.1895	-0.6606	 0.0972	-1.6837	-0.1203	
   824	55.7140	36.2898	196.8527	-13.1592	112.1033	22.0110	192.7583	-14.5901	-1.8964	-0.1047	-1.3469	 0.1949	-0.6439	 0.0913	-1.6581	-0.1208	
   825	54.2774	35.7588	196.5868	-12.7758	135.2025	15.4757	192.5707	-14.3195	-1.8797	-0.1106	-1.3213	 0.1944	-0.6350	 0.0967	-1.6325	-0.1214	
   826	53.6340	35.5945	195.9377	-11.8399	197.5702	-4.9847	192.4690	-14.1729	-1.8708	-0.1052	-1.3046	 0.1885	-0.6261	 0.1021	-1.6236	-0.1160	
   827	53.9708	35.3818	196.0316	-11.9752	197.3356	-4.6464	192.4690	-14.1729	-1.8619	-0.0998	-1.2879	 0.1826	-0.6094	 0.0962	-1.5979	-0.1165	
   828	54.3863	35.3287	196.4930	-12.6405	146.2305	12.4052	192.9460	-14.8608	-1.8452	-0.1057	-1.3046	 0.1885	-0.5927	 0.0902	-1.5979	-0.1165	
   829	54.8170	34.9807	196.8527	-13.1592	120.4749	20.5685	193.3996	-15.5148	-1.8452	-0.1057	-1.2879	 0.1826	-0.6005	 0.1015	-1.5979	-0.1165	
   830	54.6595	34.6618	197.5487	-14.1628	112.1157	23.5219	192.2813	-13.9023	-1.8619	-0.0998	-1.3046	 0.1885	-0.6094	 0.0962	-1.5979	-0.1165	
   831	54.6663	34.1060	146.1777	 3.2721	104.8216	25.7585	192.3752	-14.0376	-1.8541	-0.1111	-1.3213	 0.1944	-0.6261	 0.1021	-1.5979	-0.1165	
   832	54.1903	33.2270	113.1677	14.4157	104.6183	26.0517	193.3996	-15.5148	-1.8630	-0.1165	-1.3135	 0.1831	-0.6183	 0.0908	-1.6068	-0.1219	
   833	53.3361	32.7116	100.5903	18.1189	100.6587	27.2293	194.0174	-16.4056	-1.8797	-0.1106	-1.3469	 0.1949	-0.6350	 0.0967	-1.6325	-0.1214	
   834	53.2595	32.5854	97.8854	18.9979	98.9896	27.5977	193.4935	-15.6501	-1.8797	-0.1106	-1.3391	 0.1836	-0.6350	 0.0967	-1.6414	-0.1267	
   835	53.4216	32.8431	100.5903	18.1189	96.2798	28.6658	191.4758	-12.7408	-1.8964	-0.1047	-1.3480	 0.1783	-0.6439	 0.0913	-1.6503	-0.1321	
   836	53.3418	33.1948	103.3526	17.4664	96.9291	28.6577	190.5061	-11.3426	-1.8886	-0.1159	-1.3569	 0.1729	-0.6439	 0.0913	-1.6759	-0.1316	
   837	53.6435	33.7608	110.5804	14.9979	97.0308	28.5111	190.3967	-11.1847	-1.8975	-0.1213	-1.3736	 0.1788	-0.6439	 0.0913	-1.6848	-0.1369	
   838	54.4874	34.9098	151.4775	 1.3997	97.9851	28.0633	190.3967	-11.1847	-1.9142	-0.1154	-1.3825	 0.1734	-0.6606	 0.0972	-1.6848	-0.1369	
   839	53.9327	35.9827	197.0325	-13.4186	98.0162	27.0903	191.5775	-12.8874	-1.9231	-0.1208	-1.3825	 0.1734	-0.6695	 0.0919	-1.7015	-0.1310	
   840	53.1095	36.0777	197.0325	-13.4186	94.3797	27.1833	192.2813	-13.9023	-1.9487	-0.1202	-1.3825	 0.1734	-0.6784	 0.0865	-1.6937	-0.1423	
   841	53.4312	36.1599	196.7666	-13.0352	97.6972	25.7302	191.9841	-13.4738	-1.9654	-0.1143	-1.3992	 0.1793	-0.6951	 0.0924	-1.7104	-0.1364	
   842	54.0589	36.3467	195.7422	-11.5580	115.0895	20.8538	191.7808	-13.1806	-1.9743	-0.1197	-1.4170	 0.1686	-0.7207	 0.0929	-1.7449	-0.1412	
   843	56.3337	36.6157	195.7422	-11.5580	123.3961	18.5404	192.4690	-14.1729	-1.9832	-0.1251	-1.4426	 0.1691	-0.7296	 0.0876	-1.7794	-0.1461	
   844	59.1233	35.1959	196.9465	-13.2945	109.7434	22.5383	193.8454	-16.1575	-2.0010	-0.1358	-1.4772	 0.1643	-0.7553	 0.0881	-1.8139	-0.1509	
   845	60.7566	33.8782	177.8341	-7.6486	100.8664	24.8914	194.7681	-17.4881	-2.0266	-0.1353	-1.5117	 0.1595	-0.7563	 0.0715	-1.8485	-0.1557	
   846	61.9835	33.5469	197.9631	-14.7604	97.7832	25.6062	195.0966	-17.9617	-2.0355	-0.1406	-1.5462	 0.1546	-0.7820	 0.0720	-1.8662	-0.1665	
   847	62.3796	33.7219	178.0765	-7.9981	94.3411	26.4563	154.9949	-3.9635	-2.0612	-0.1401	-1.5885	 0.1611	-0.8076	 0.0725	-1.9008	-0.1713	
   848	60.2151	33.9674	132.0356	 7.5026	89.1608	27.6651	123.4011	 6.8670	-2.0700	-0.1455	-1.5974	 0.1557	-0.8332	 0.0731	-1.9264	-0.1708	
   849	57.2953	34.3009	111.3937	13.8251	84.0801	28.6940	106.1798	12.5344	-2.0957	-0.1449	-1.6063	 0.1503	-0.8343	 0.0564	-1.9442	-0.1815	
   850	54.9030	34.8567	111.4641	13.7236	84.6431	28.4099	108.3283	12.4393	-2.1124	-0.1390	-1.6319	 0.1509	-0.8677	 0.0682	-1.9698	-0.1810	
   851	53.7591	34.8862	114.0670	13.1190	87.6980	27.9180	127.8161	 6.2521	-2.1213	-0.1444	-1.6408	 0.1455	-0.8855	 0.0575	-1.9954	-0.1804	
   852	53.8451	34.7622	120.4222	11.4355	93.3027	27.1892	192.7583	-14.5901	-2.1391	-0.1551	-1.6753	 0.1407	-0.8944	 0.0521	-2.0132	-0.1912	
   853	54.2440	34.7149	131.6524	 8.0551	103.1654	25.7988	189.5834	-10.0120	-2.1814	-0.1487	-1.7010	 0.1412	-0.9200	 0.0527	-2.0388	-0.1906	
   854	56.2901	35.1498	197.8849	-14.6477	117.5155	22.7975	187.8082	-7.4523	-2.2070	-0.1481	-1.7266	 0.1418	-0.9623	 0.0591	-2.0644	-0.1901	
   855	56.4804	35.1847	166.5492	-4.1893	107.6475	25.5603	189.0985	-9.3129	-2.2248	-0.1589	-1.7444	 0.1310	-0.9801	 0.0484	-2.0822	-0.2008	
   856	55.8473	34.9146	138.6005	 5.0980	98.9896	27.5977	189.9353	-10.5194	-2.2337	-0.1643	-1.7700	 0.1316	-1.0058	 0.0489	-2.1079	-0.2003	
   857	55.0750	34.6086	124.8822	 9.5362	92.5659	29.0160	190.2793	-11.0156	-2.2504	-0.1583	-1.7956	 0.1321	-0.9979	 0.0376	-2.1246	-0.1944	
   858	54.5808	34.5023	126.9793	 9.0421	92.7536	28.7453	190.7251	-11.6583	-2.2504	-0.1583	-1.7956	 0.1321	-0.9979	 0.0376	-2.1079	-0.2003	
   859	56.5605	34.1774	142.2524	 4.0546	95.6524	27.8233	190.8346	-11.8162	-2.2248	-0.1589	-1.7700	 0.1316	-0.9801	 0.0484	-2.0733	-0.1954	
   860	59.4981	33.3268	138.4441	 5.3235	94.7555	27.4421	191.8825	-13.3272	-2.1992	-0.1594	-1.7611	 0.1369	-0.9712	 0.0537	-2.0299	-0.1852	
   861	60.2027	32.9842	134.8682	 6.7486	98.2977	26.6844	192.7583	-14.5901	-2.1736	-0.1600	-1.7266	 0.1418	-0.9289	 0.0473	-1.9865	-0.1750	
   862	60.9442	33.6076	197.8849	-14.6477	104.3204	25.2801	193.3136	-15.3907	-2.1647	-0.1546	-1.6921	 0.1466	-0.9033	 0.0468	-1.9353	-0.1761	
   863	62.9402	34.0602	197.3766	-13.9147	106.3573	24.7818	193.6733	-15.9094	-2.1391	-0.1551	-1.6664	 0.1460	-0.8944	 0.0521	-1.9086	-0.1600	
   864	62.0347	34.6015	196.9465	-13.2945	113.8148	22.6918	193.6733	-15.9094	-2.1302	-0.1498	-1.6408	 0.1455	-0.8855	 0.0575	-1.8830	-0.1605	
   865	60.9688	34.6461	196.9465	-13.2945	118.9153	20.7790	194.0174	-16.4056	-2.1135	-0.1557	-1.6408	 0.1455	-0.8688	 0.0516	-1.8741	-0.1552	
   866	61.0254	34.2004	197.4626	-14.0388	115.9885	21.2683	194.7681	-17.4881	-2.1046	-0.1503	-1.6319	 0.1509	-0.8688	 0.0516	-1.8652	-0.1498	
   867	63.7222	32.9326	157.2906	 0.0609	119.5174	19.9108	194.6117	-17.2626	-2.1046	-0.1503	-1.6152	 0.1450	-0.8521	 0.0457	-1.8485	-0.1557	
   868	63.8160	32.7973	165.3918	-2.5204	127.3762	17.6790	194.1034	-16.5296	-2.1046	-0.1503	-1.6241	 0.1396	-0.8688	 0.0516	-1.8406	-0.1670	
